time_s,ECG1,ECG2,NIBP
0.0,0.10153093457874078,0.06489670676532096,108.88050609718533
0.01,-0.13622703214719017,-0.011018761687320303,109.13862429253182
0.02,-0.042330002423993804,0.02042270485149884,108.24025197982202
0.03,-0.20874912827486214,-0.037710761981604835,106.32150617613321
0.04,-0.08691200678037321,-0.0015198291982510765,103.81997788451369
0.05,-0.2337119971524924,-0.040674428918194436,101.03714109093454
0.06,-0.09107248492664492,-0.0038945623205183834,98.22103124873651
0.07,-0.2158868293147962,-0.04422702966910632,95.57330319803403
0.08,-0.06847612655423345,0.006193303982873136,93.2280574075032
0.09,-0.22245198749056438,-0.05431489597249784,91.24175723237606
0.1,-0.057177947368027705,0.0014438377383385226,89.57003860782741
0.11,-0.19687840622449057,-0.040674428918194436,88.17862021103784
0.12,-0.08214081624565796,-0.01932082868276681,86.96667462195012
0.13,-0.19390118333082826,-0.04481596348342862,85.78901035568184
0.14,-0.05420072447436538,0.010334838548107319,84.47623734653689
0.15,-0.23016223139466424,-0.06915222852042398,82.96180949727751
0.16,-0.0934389954318637,-0.021106627990711824,81.32336392134776
0.17,-0.2147035740621868,-0.038299695795927124,79.74138170065005
0.18,-0.08988922967403554,-0.011607695501642597,78.38323635247936
0.19,-0.23668922004615472,-0.05313702834385326,77.36286286150033
0.2,-0.08214081624565796,0.004996438489250413,76.71151772793073
0.21,-0.2390939000756512,-0.05313702834385326,76.52095390402259
0.22,-0.09164502779081075,-0.0015198291982510765,76.36366312873332
0.23,-0.22302453035473022,-0.03947756342457171,76.19528133723777
0.24,-0.09580550593708247,-0.008644028565052997,76.52095390402259
0.25,-0.2266124656368361,-0.038888629610249414,77.2842174738557
0.26,-0.09404970782030725,0.0038185708606058295,78.18158151236493
0.27,-0.23432270954093595,-0.04601282897705134,78.98920914702322
0.28,-0.08870597442142615,-0.002127760877551507,79.65164529679913
0.29,-0.2509646221260228,-0.05847542840271017,80.13360036467262
0.3,-0.08275152863410151,0.00737117161151772,80.45927293145742
0.31,-0.23134548664727364,-0.041852296546839016,80.61656370674667
0.32,-0.09878272883074479,0.005585372303572706,80.62765472295297
0.33,-0.24501017633869815,-0.04719069660569592,80.4925459800763
0.34,-0.1071036851232882,-0.013982428623909903,80.22333676852354
0.35,-0.225391040859949,-0.03947756342457171,79.78574576547523
0.36,-0.08691200678037321,0.0038185708606058295,79.20296327754451
0.37,-0.24741485636819463,-0.05668962909476515,78.54052712776861
0.38,-0.06908683894267699,0.010923772362429612,77.84481792937382
0.39,-0.20164959675920585,-0.02999762880048062,77.13801771477274
0.4,-0.013206655400091846,0.03761577265671414,76.43121750017167
0.41,-0.16122807054909813,-0.013982428623909903,75.73550830177687
0.42,0.0022520019323856036,0.06371883913667638,75.07307215200098
0.43,-0.1594341029080452,-0.0033056285061960912,74.4670993574571
0.44,-0.06610961604901468,0.05245310520464028,73.93977195055787
0.45,-0.21172635116852448,0.00737117161151772,73.4245438340655
0.46,-0.07916359335199563,0.030510571154890358,72.90830744337255
0.47,-0.2622628013122285,-0.06202802915362206,72.4031620688859
0.48,-0.11424138616322224,0.0002469722447157999,71.90910771060554
0.49,-0.2723777252458249,-0.06381382846156707,71.44933467514464
0.5,-0.10118740886024127,-0.0038945623205183834,71.03392570450892
0.51,-0.2676065347111096,-0.06795536302680126,70.64170704048635
0.52,-0.10294320697701649,0.007960105425840013,70.29385244128895
0.53,-0.2806986815383683,-0.0905058287558516,69.95708885829785
0.54,-0.08691200678037321,0.0020327715526608147,69.63141629151305
0.55,-0.2533311326312416,-0.05727856290908744,69.28356169231566
0.56,0.0908434677809786,0.1022655071773193,68.95889739973141
0.57,0.42192592136594004,0.2683448428162057,68.6443158491529
0.58,1.738011118461798,0.2766659076766303,68.35292460518755
0.59,0.583039483342205,-0.05727856290908744,68.11698844225367
0.6,-0.028665312732569295,-0.14031823072853064,67.91533360213924
0.61,-0.268789789963719,-0.13439089685535144,67.72376150403053
0.62,-0.024504834586297587,-0.007466160936408413,67.5221066639161
0.63,-0.17309879259946973,-0.04660176279137363,67.32045182380166
0.64,-0.024504834586297587,0.013298505484696918,67.11778870948666
0.65,-0.1837862593972319,-0.04660176279137363,66.90504285316594
0.66,-0.01855038879897294,0.011531704041730042,66.7144790292578
0.67,-0.13328797877780557,-0.01635716174617721,66.50072489873651
0.68,0.03675725187944638,0.04532890583783836,66.2657970100032
0.69,-0.12790607585464675,-0.024070294927301422,66.02986084706932
0.7,0.04385678339510269,0.04415103820919377,65.77174265172283
0.71,-0.10592042987067882,-0.015160296252554488,65.51362445637636
0.72,0.07538481044850114,0.05838043907781947,65.26659727723619
0.73,-0.06492636079640529,-0.0015198291982510765,65.03166938850288
0.74,0.11282911376494652,0.0655046384446214,64.75036088654325
0.75,-0.02687134509151636,0.003210639181305399,64.40250628734584
0.76,0.1621823086560412,0.0880361063086936,64.03246965573587
0.77,0.046261463424599185,0.04057943959330374,63.741078411770516
0.78,0.2311164695016073,0.10938970654412122,63.84190583182773
0.79,0.11878355955227117,0.05541677214122987,65.20005117999843
0.8,0.3494038252382681,0.14616957314179727,68.80160662444216
0.81,0.22516202371428265,0.08862504012301589,74.28762654975526
0.82,0.42726965476482115,0.1710757741281368,80.8293095630674
0.83,0.28165291964531136,0.10583710579320933,87.71884717557694
0.84,0.45227069316672913,0.1728615734360818,93.95703965451686
0.85,0.3012720551240605,0.12836857365728155,98.9278314633376
0.86,0.394596541983091,0.1586321725674561,102.85505947456613
0.87,0.15027341708139189,0.0655046384446214,106.07548727119361
0.88,0.2067643130124206,0.0963381733041401,108.40863377131757
0.89,-0.031031823237788064,0.019833771037176547,109.53084295655438
0.9,0.046834006288765016,0.0595773045714422,109.38464319747142
0.91,-0.15645688001438288,-0.01635716174617721,107.99423307488242
0.92,-0.025688089838906972,0.032277372597857235,105.66007830055787
0.93,-0.2295515190062207,-0.06558062990453395,102.86615049077243
0.94,-0.03637555663666916,0.038812638150336864,99.89274987328514
0.95,-0.19626769383604703,-0.034139163365714806,96.90825823959156
0.96,-0.03874206714188793,0.030510571154890358,94.15869449463129
0.97,-0.18558022703828483,-0.031175496429125205,91.78017565548159
0.98,-0.0381695242777221,0.01745903791490924,89.8170657869676
0.99,-0.1820304612804567,-0.037121828167282545,88.25726559868248
1.0,-0.030421110849344513,0.012709571670374627,86.97776563815641
1.01,-0.18855744993194717,-0.05490382978682014,85.81119238809443
1.02,0.005839937214491481,0.042954172715571046,84.65571015423873
1.03,-0.16832760206475444,-0.04008549510387214,83.35402816130008
1.04,-0.009046177253820138,0.03584897121374726,81.850691328247
1.05,-0.17130482495841678,-0.03947756342457171,80.25761809134299
1.06,-0.01855038879897294,0.019833771037176547,78.75327298408934
1.07,-0.17012156970580739,-0.03592496267365982,77.55342668540847
1.08,-0.03458158899561622,0.022208504159443854,76.76798108316277
1.09,-0.1879467375435036,-0.041852296546839016,76.47558156499684
1.1,-0.0476737358228749,0.015084304792641933,76.66715366310555
1.11,-0.19390118333082826,-0.04363809585478403,77.0815543595407
1.12,-0.03458158899561622,0.021600572480143423,77.51914536258901
1.13,-0.20458865012859045,-0.05252909666455283,78.01319972086938
1.14,-0.05244492635759016,0.012709571670374627,78.58589946679436
1.15,-0.20638261776964337,-0.048976495913640936,79.28060039098857
1.16,-0.06076588265013358,-0.002716694691873799,80.05495497702799
1.17,-0.20340539487598105,-0.04601282897705134,80.72848214301018
1.18,-0.07443057234155809,-0.0038945623205183834,81.1882551784711
1.19,-0.20164959675920585,-0.04363809585478403,81.45746439002386
1.2,-0.05065095871653722,0.014495370978319641,81.5139277452559
1.21,-0.20699333015808694,-0.048976495913640936,81.35663696996664
1.22,-0.0476737358228749,0.02101163866582113,81.03096440318184
1.23,-0.1998556291181529,-0.04660176279137363,80.56010035151463
1.24,-0.0381695242777221,0.02456423941673302,79.98840887979023
1.25,-0.17664855835729787,-0.03474709504501523,79.33706374622061
1.26,-0.0007252209612767198,0.03702683884239185,78.59699048300065
1.27,-0.09702693071396958,0.005585372303572706,77.81154488075494
1.28,0.02187113741113476,0.03643790502806956,77.03719029471553
1.29,-0.08214081624565796,0.03347423809147996,76.30719977350128
1.3,0.020687882158525378,0.06312990532235409,75.67904494654483
1.31,-0.17664855835729787,0.0008549039240162305,75.11844449102672
1.32,-0.02744388795568219,0.057202571449174885,74.59111708412748
1.33,-0.17248808021102616,-0.021695561805034114,74.09706272584712
1.34,-0.07381985995311453,0.004996438489250413,73.61510765797364
1.35,-0.22123056271367728,-0.05135122903590825,73.12105329969327
1.36,-0.0880952620329826,-0.005091427814141106,72.65018924802608
1.37,-0.23016223139466424,-0.05965329603135475,72.21259824497777
1.38,-0.09107248492664492,-0.016946095560499502,71.77500724192944
1.39,-0.20756587302225277,-0.060242229845677044,71.34850725508743
1.4,-0.0880952620329826,-0.01635716174617721,70.95528031686429
1.41,-0.20222213962337168,-0.06736642921247896,70.58524368525431
1.42,-0.032825790878841,0.01388743929901921,70.21520705364432
1.43,0.04091773002571809,0.0821087724355144,69.85626143824064
1.44,0.8184309395629172,0.3573308423738062,69.51949785524954
1.45,1.5721645354750955,0.16870104100586947,69.20491630467103
1.46,0.5907497272463049,-0.06974116233474627,68.93570709311825
1.47,-0.205199362517034,-0.1948990968107224,68.68867991397808
1.48,-0.05065095871653722,-0.05431489597249784,68.48702507386365
1.49,-0.09821018596657896,-0.05135122903590825,68.3075522661618
1.5,0.015916691623810115,0.006193303982873136,68.13917047466626
1.51,-0.10237066411285066,-0.029408694986158328,67.93751563455183
1.52,-0.00782475247693303,-0.00626929544278569,67.71267048782424
1.53,-0.09580550593708247,-0.024659228741623716,67.46564330868405
1.54,0.05042194157087089,0.03643790502806956,67.23071541995074
1.55,-0.06133842551429941,-0.015160296252554488,66.98368824081057
1.56,0.07301829994328238,0.041776305086926466,66.74775207787668
1.57,-0.03519230138405977,-0.002716694691873799,66.50072489873651
1.58,0.09382069067464091,0.041776305086926466,66.22042467097745
1.59,-0.00782475247693303,-0.0003419615696064922,65.9068513945995
1.6,0.12531054820376164,0.04770363896010566,65.5700878116084
1.61,0.03496328423839344,0.007960105425840013,65.20005117999843
1.62,0.18298469938739972,0.07855617168460251,64.85219658080103
1.63,0.09916442407352201,0.042954172715571046,64.53761503022253
1.64,0.228139246607945,0.08032297312756939,64.38032425493326
1.65,0.1758469983474657,0.061344106014409074,64.71708783792437
1.66,0.33516659268267773,0.12303017359842464,66.44526981770504
1.67,0.2768817291105961,0.0963381733041401,70.32712548990783
1.68,0.42669711190065535,0.1485443062640646,75.9371631418913
1.69,0.3452433470919964,0.11058657203774394,82.48993717140975
1.7,0.46769118097492884,0.16039897401042297,89.18891096001114
1.71,0.3696336731054608,0.12540490672069193,95.09033985595997
1.72,0.47009586100442535,0.1811636404315283,99.75764113040847
1.73,0.28581339779158305,0.0963381733041401,103.42675094629055
1.74,0.31909722296175674,0.12599384053501422,106.41124257998413
1.75,0.1003476793261314,0.04532890583783836,108.53265149798794
1.76,0.11996681480488056,0.06489670676532096,109.44110655270346
1.77,-0.05065095871653722,-0.002716694691873799,109.14971530873811
1.78,0.012977638254425513,0.032277372597857235,107.6907425405102
1.79,-0.13622703214719017,-0.038888629610249414,105.4019601052114
1.8,-0.031031823237788064,0.014495370978319641,102.70885971548317
1.81,-0.12733353299048092,-0.025248162555946006,99.88165885707885
1.82,-0.04171929003555025,-0.00626929544278569,97.10991307970599
1.83,-0.11542464141583163,-0.028211829492535607,94.64165783670536
1.84,-0.006641497224323645,0.012120637856052335,92.5323482091084
1.85,-0.10828694037589759,-0.038888629610249414,90.78198419691515
1.86,0.007023192467100866,0.02042270485149884,89.36838376771298
1.87,-0.09286645256769786,-0.03474709504501523,88.17862021103784
1.88,0.011183670613372575,0.019225839357876116,87.0796013324142
1.89,-0.09702693071396958,-0.04422702966910632,85.91201980815164
1.9,0.018321371653306606,0.023386371788088438,84.53169242756836
1.91,-0.08748454964453904,-0.027622895678213313,82.96180949727751
1.92,0.0022520019323856036,0.011531704041730042,81.67121852054515
1.93,-0.09046177253820137,-0.0258370963702683,80.62765472295297
1.94,-0.009618720117985969,0.018636905543553826,79.51653655392246
1.95,-0.10592042987067882,-0.031175496429125205,78.48406377253657
1.96,-0.020344356440025878,0.008549039240162305,77.66534512167198
1.97,-0.12435631009681859,-0.04601282897705134,77.27312645764941
1.98,-0.02805460034412574,0.0020327715526608147,77.39613591011921
1.99,-0.1285167882430903,-0.04660176279137363,77.84481792937382
2.0,-0.0316043661019539,0.009745904733785027,78.39432736868565
2.01,-0.1231730548442092,-0.037121828167282545,78.97811813081692
2.02,-0.032825790878841,0.0020327715526608147,79.52762757012876
2.03,-0.1338605216419714,-0.04422702966910632,80.10032731605374
2.04,-0.04114674717138442,0.0008549039240162305,80.66092777157185
2.05,-0.13328797877780557,-0.04719069660569592,81.16607314605851
2.06,-0.04114674717138442,-0.002127760877551507,81.53610977766849
2.07,-0.11782932144532811,-0.03237236192274793,81.67121852054515
2.08,-0.02744388795568219,0.011531704041730042,81.58148211669423
2.09,-0.12912750063153386,-0.03947756342457171,81.30118188893518
2.1,-0.02984856798517868,0.010334838548107319,80.87468190209316
2.11,-0.12912750063153386,-0.045423895162729044,80.3584455114002
2.12,-0.04053603478294087,0.0014438377383385226,79.75247271685635
2.13,-0.13981496742929606,-0.048976495913640936,79.07894555087414
2.14,-0.029237855596735127,0.010923772362429612,78.34996330386048
2.15,-0.10771439751173176,-0.028819761171836038,77.59779075023364
2.16,0.011756213477538406,0.03761577265671414,76.86880850321998
2.17,-0.05301746922175599,-0.004483496134840675,76.1398262562063
2.18,0.044467495783546244,0.041776305086926466,75.46629909022411
2.19,-0.02744388795568219,0.018636905543553826,74.86032629568024
2.2,0.06706385415595773,0.08091190694189168,74.32190787257471
2.21,-0.057177947368027705,0.021600572480143423,73.82785351429436
2.22,-0.0381695242777221,0.05304203901896257,73.35698946262715
2.23,-0.08156827338149213,0.03347423809147996,72.89721642716626
2.24,-0.057177947368027705,0.006193303982873136,72.4142530850922
2.25,-0.1499298913628924,-0.040674428918194436,71.89801669439925
2.26,-0.07977430574043919,0.0014438377383385226,71.3928713199126
2.27,-0.16122807054909813,-0.04363809585478403,70.9330982844517
2.28,-0.0761863704583333,-0.002716694691873799,70.54087962042914
2.29,-0.16180061341326396,-0.05847542840271017,70.20411603743803
2.3,-0.0761863704583333,-0.01576822793185492,69.90062550306581
2.31,-0.14099822268190543,-0.05015436354228552,69.59814324289417
2.32,-0.07443057234155809,-0.005680361628463398,69.28356169231566
2.33,-0.09996598408335418,-0.03651389648798211,68.93570709311825
2.34,0.20852011112919583,0.1811636404315283,68.58785249392086
2.35,1.0015301475231502,0.3436903753195028,68.25108891092977
2.36,1.434868756648129,0.1651484402549576,67.94860665075812
2.37,0.3012720551240605,-0.1112514973119788,67.67939743920536
2.38,-0.10118740886024127,-0.10353836413085458,67.45455229247776
2.39,-0.09164502779081075,-0.05965329603135475,67.28617050098221
2.4,-0.019122931663138772,-0.017535029374821796,67.12988799989353
2.41,-0.05599469211541832,-0.01280456099526532,66.95041519219168
2.42,-0.003664274330661321,0.018047971729231532,66.73666106167039
2.43,-0.08332407149826734,-0.031175496429125205,66.52391520534967
2.44,0.00820644771971025,0.022797437973766148,66.29907005862208
2.45,-0.03698626902511271,0.0038185708606058295,66.08632420230136
2.46,0.022481849799578315,0.02693897253900033,65.8957603783932
2.47,-0.029237855596735127,-0.008055094750730706,65.68200624787191
2.48,0.04385678339510269,0.03109950496921265,65.44607008493803
2.49,0.012977638254425513,0.01687010410058695,65.15467884097268
2.5,0.06885782179701067,0.038812638150336864,64.82900627418788
2.51,0.03614653949100283,0.023386371788088438,64.49224269119676
2.52,0.10450815747240311,0.04829257277442795,64.14539636619995
2.53,0.08252251148843517,0.03584897121374726,63.83081481562144
2.54,0.171686520201194,0.07439563925439019,63.594878652687555
2.55,0.1479069065761731,0.06312990532235409,63.58378763648126
2.56,0.2418039362993695,0.10464024029958661,64.39141527113955
2.57,0.22756670374377916,0.08151983862119211,67.19643409713129
2.58,0.3256242116132472,0.12540490672069193,72.22368926118406
2.59,0.30959301141660395,0.10701497342185391,78.5627091601812
2.6,0.40528400878085324,0.16395157476133487,85.49661083751592
2.61,0.3660457378233549,0.13549277302408347,92.15122056129213
2.62,0.4290636224058741,0.17166470794245908,97.63724048660524
2.63,0.34703731473304933,0.13074330677954885,101.73285028932933
2.64,0.33516659268267773,0.13904537377499535,104.88572371451846
2.65,0.19367216618516192,0.08625030700074858,107.28642458608076
2.66,0.15088412946983545,0.08389457174345942,108.77967867712812
2.67,0.018893914517472438,0.02754690421830076,109.10434296971236
2.68,-0.009618720117985969,0.02754690421830076,108.21806994740943
2.69,-0.0785910504878298,0.0008549039240162305,106.31041515992692
2.7,-0.06668215891318051,0.019833771037176547,103.77460554548794
2.71,-0.11008090801695053,-0.002716694691873799,100.94740468708362
2.72,-0.08927851728559198,0.0020327715526608147,98.06374047344725
2.73,-0.11366884329905641,-0.011018761687320303,95.37064008371902
2.74,-0.07263660470050515,0.010334838548107319,93.0143032769819
2.75,-0.09996598408335418,-0.01280456099526532,91.05119340846791
2.76,-0.07145334944789576,-0.0038945623205183834,89.43492986495075
2.77,-0.07740779523522041,0.0008549039240162305,88.1221568558058
2.78,-0.06431564840796174,0.004407504674928122,87.00095594476957
2.79,-0.0761863704583333,0.0014438377383385226,85.90092879194535
2.8,-0.06549890366057112,0.002621705366983107,84.70007421906391
2.81,-0.10889765276434114,-0.034139163365714806,83.29756480606804
2.82,-0.07500311520572392,0.002621705366983107,81.71558258537033
2.83,-0.0975994735781354,-0.01280456099526532,80.10032731605374
2.84,-0.10828694037589759,-0.024070294927301422,78.66353658023841
2.85,-0.09939344121918835,-0.0033056285061960912,77.56451770161476
2.86,-0.08988922967403554,0.006782237797195429,76.85771748701369
2.87,-0.11721860905688457,-0.015160296252554488,76.58850827546092
2.88,-0.11840186430949394,-0.01576822793185492,76.75689006695647
2.89,-0.12198979959159982,-0.015160296252554488,77.13801771477274
2.9,-0.09996598408335418,0.015673238606964224,77.57560871782105
2.91,-0.10889765276434114,-0.0038945623205183834,78.01319972086938
2.92,-0.12435631009681859,-0.006858229257107982,78.47297275633028
2.93,-0.11542464141583163,0.0038185708606058295,79.02349046984267
2.94,-0.132677266389362,-0.010429827872998012,79.64055428059284
2.95,-0.12198979959159982,-0.002127760877551507,80.22333676852354
2.96,-0.13504377689458077,-0.005091427814141106,80.66092777157185
2.97,-0.12019583195054688,-0.004483496134840675,80.88577291829945
2.98,-0.13206655400091846,-0.002716694691873799,80.87468190209316
2.99,-0.12912750063153386,-0.012196629315964888,80.68310980398444
3.0,-0.13088329874830906,0.0014438377383385226,80.3584455114002
3.01,-0.09702693071396958,0.009156970919462736,79.93194552455819
3.02,-0.07740779523522041,0.02397530560241073,79.42680015007154
3.03,-0.013779198264257678,0.038812638150336864,78.86619969455342
3.04,-0.039925322394497316,0.041776305086926466,78.21485456098381
3.05,-0.02984856798517868,0.05304203901896257,77.50805434638272
3.06,-0.04171929003555025,0.05423890451258529,76.79016311557535
3.07,-0.0880952620329826,0.04829257277442795,76.03799056194852
3.08,-0.12496702248526215,0.04356210439487148,75.32009933114115
3.09,-0.09286645256769786,0.03347423809147996,74.6808534879784
3.1,-0.15229640186811116,-0.008644028565052997,74.10815374205342
3.11,-0.1540903695091641,-0.024659228741623716,73.58082633515419
3.12,-0.1784425259983508,-0.031175496429125205,73.08778025107439
3.13,-0.1511131466155018,-0.024070294927301422,72.59372589279404
3.14,-0.17073228209425095,-0.021106627990711824,72.0774895021011
3.15,-0.132677266389362,-0.018142961054122223,71.57234412761444
3.16,-0.17786998313418498,-0.04719069660569592,71.10148007594725
3.17,-0.13622703214719017,-0.022284495619356408,70.66388907289894
3.18,-0.14870846658600528,-0.024070294927301422,70.27167040887636
3.19,0.08133925623582579,0.10583710579320933,69.88953448685952
3.2,0.6151400532597693,0.3549561092515389,69.49731582283695
3.21,1.5591105581721145,0.2671669751875611,69.10408888461382
3.22,0.5396407342384351,-0.05015436354228552,68.75623428541641
3.23,-0.08748454964453904,-0.15633343090510135,68.43056171863161
3.24,-0.17546530310468847,-0.07804322933019277,68.13917047466626
3.25,-0.05183421396914661,-0.014571362438232194,67.92642461834554
3.26,-0.10355391936546005,-0.015160296252554488,67.72376150403053
3.27,-0.06492636079640529,0.0038185708606058295,67.5221066639161
3.28,-0.10828694037589759,-0.002127760877551507,67.29826979138907
3.29,-0.04114674717138442,0.02042270485149884,67.0512426122489
3.3,-0.08214081624565796,0.010334838548107319,66.80421543310872
3.31,-0.022100154556801095,0.023386371788088438,66.55718825396855
3.32,-0.07561382759416747,-0.0015198291982510765,66.29907005862208
3.33,0.0028627143208291572,0.03465210572012454,66.0631338956882
3.34,-0.03339833374300683,0.018636905543553826,65.80501570034171
3.35,0.03732979474361221,0.04473997202351606,65.50253344017007
3.36,-0.0012977638254425513,0.032277372597857235,65.14358782476639
3.37,0.06885782179701067,0.05186417139031798,64.75036088654325
3.38,0.042673528142493304,0.046525771331461074,64.38032425493326
3.39,0.12053935766904639,0.07143197231780059,64.06675097855532
3.4,0.09141601064514443,0.06371883913667638,63.89836918705977
3.41,0.1942828785736055,0.09812397261208512,64.20085144723141
3.42,0.19485542143777132,0.11058657203774394,65.87257007178005
3.43,0.2869966530441925,0.12836857365728155,69.68787964674509
3.44,0.27630918624643025,0.13963430758931764,75.20818089487764
3.45,0.3642899397065797,0.1651484402549576,81.58148211669423
3.46,0.32444095636063786,0.16336264094701258,88.16752919483154
3.47,0.3922300314778723,0.1764141741869937,94.147603478425
3.48,0.29768411984195464,0.14972217389270917,98.79272272046093
3.49,0.3054325332703322,0.1485443062640646,102.17044129237765
3.5,0.15206738472244483,0.11472810660297814,104.66087856779087
3.51,0.11221840137650296,0.085072439372104,106.31041515992692
3.52,-0.035764844248225604,0.04711470514578337,107.08476974596633
3.53,-0.03874206714188793,0.03702683884239185,106.84883358303244
3.54,-0.13981496742929606,0.01388743929901921,105.57034189670695
3.55,-0.09641621832552602,0.019225839357876116,103.42675094629055
3.56,-0.17191553734686033,0.006193303982873136,100.82439523461382
3.57,-0.12374559770837504,-0.006858229257107982,98.04155844103467
3.58,-0.17309879259946973,-0.0015198291982510765,95.34845805130644
3.59,-0.10653114225912237,0.006193303982873136,92.91347585692469
3.6,-0.17130482495841678,-0.007466160936408413,90.90499364938495
3.61,-0.09878272883074479,0.0008549039240162305,89.27864736386206
3.62,-0.15882339051960165,-0.004483496134840675,87.97696537092341
3.63,-0.07740779523522041,0.019833771037176547,86.84366516948032
3.64,-0.16298386866587336,-0.012196629315964888,85.77791933947555
3.65,-0.08691200678037321,0.011531704041730042,84.61033781521299
3.66,-0.15882339051960165,-0.0009308953839287843,83.21891941842341
3.67,-0.08691200678037321,0.010334838548107319,81.58148211669423
3.68,-0.16180061341326396,-0.0003419615696064922,79.86439115311985
3.69,-0.11424138616322224,-0.00626929544278569,78.31568198104102
3.7,-0.18023649363940375,-0.006858229257107982,77.092645375747
3.71,-0.11840186430949394,-0.002716694691873799,76.2628357086761
3.72,-0.17905323838679435,-0.005091427814141106,76.20637235344407
3.73,-0.12733353299048092,-0.013393494809587611,76.72260874413702
3.74,-0.1932904709423847,-0.014571362438232194,77.11583568236016
3.75,-0.11840186430949394,0.005585372303572706,77.22775411862366
3.76,-0.19210721568977532,-0.010429827872998012,77.23884513482996
3.77,-0.1338605216419714,-0.010429827872998012,77.4294089587381
3.78,-0.20222213962337168,-0.013982428623909903,77.93455433322475
3.79,-0.11126416326955992,-0.0009308953839287843,78.67563587064528
3.8,-0.14931917897444885,0.006782237797195429,79.42680015007154
3.81,-0.02984856798517868,0.03702683884239185,79.97630958938336
3.82,-0.11126416326955992,0.028724771846945343,80.21224575231724
3.83,-0.019122931663138772,0.06846830538121099,80.1557823970852
3.84,-0.09462225068447308,0.05838043907781947,79.94303654076448
3.85,-0.09821018596657896,0.04057943959330374,79.60627295777338
3.86,-0.19092396043716592,0.05304203901896257,79.17977297093135
3.87,-0.10412646222962588,0.03999050577898145,78.69781790305787
3.88,-0.22184127510212084,-0.01635716174617721,78.15939947995234
3.89,-0.15466291237332994,-0.00982189619369758,77.55342668540847
3.9,-0.22481849799578316,-0.00626929544278569,76.87989951942627
3.91,-0.15168568947966762,-0.008055094750730706,76.12772696579944
3.92,-0.22600175324839253,-0.018142961054122223,75.37656268637319
3.93,-0.14870846658600528,-0.011607695501642597,74.65867145556581
3.94,-0.24264366583347938,-0.04422702966910632,74.0184173382025
3.95,-0.13504377689458077,-0.01576822793185492,73.4356348502718
3.96,-0.23966644293981704,-0.03058656261480291,72.90830744337255
3.97,-0.01618387829375417,0.041776305086926466,72.42534410129849
3.98,0.21924574745123573,0.25766804269849186,71.943389033425
3.99,1.4836112391507803,0.34190457601155777,71.43824365893835
4.0,0.8659901668129589,0.09457137186117323,70.9330982844517
4.01,0.06347591887385184,-0.14744243009533256,70.45114321657822
4.02,-0.2765382033920966,-0.08930896326222888,70.02464322973618
4.03,-0.0678654141657899,-0.0199097624970891,69.68787964674509
4.04,-0.13447123403041494,0.006193303982873136,69.42976145139862
4.05,-0.06370493601951818,0.010923772362429612,69.20491630467103
4.06,-0.1540903695091641,-0.002127760877551507,68.99217044835031
4.07,-0.04408580054076902,0.019225839357876116,68.71187022059124
4.08,-0.13981496742929606,-0.002127760877551507,68.38619765380643
4.09,-0.030421110849344513,0.026350038724678036,68.04943407081534
4.1,-0.11660789666844101,0.013298505484696918,67.7358607944374
4.11,-0.034009046131450386,0.007960105425840013,67.42127924385888
4.12,-0.07916359335199563,0.02693897253900033,67.11778870948666
4.13,0.02187113741113476,0.03999050577898145,66.81530644931502
4.14,-0.04885699107548429,0.03702683884239185,66.48963388253021
4.15,0.05099448443503672,0.04591783965216065,66.14177928333282
4.16,-0.00545824197171426,0.057202571449174885,65.74956061931024
4.17,0.1330207921078615,0.0909997732452832,65.3674246972934
4.18,0.07240758755483882,0.08389457174345942,65.03166938850288
4.19,0.2174517798101828,0.12361910741274693,64.9187426780388
4.2,0.15504460761610717,0.10287343885661973,65.54790577919582
4.21,0.3054325332703322,0.14558063932747498,67.9929707155833
4.22,0.2566900507676811,0.14675850695611956,72.56045284417516
4.23,0.3791378846506136,0.1710757741281368,78.40541838489195
4.24,0.2959283217251794,0.1509190393863319,84.83518296194057
4.25,0.42433060139543655,0.20251724066695592,91.15202082852512
4.26,0.2798589520042584,0.15802424088815567,96.54931262418788
4.27,0.323868413496472,0.15268584082929876,100.54308673265419
4.28,0.13363150449630506,0.12065544047615732,103.34810555864593
4.29,0.14313571604145786,0.11294230729503311,105.24466932992215
4.3,-0.057177947368027705,0.06075517220008678,106.31041515992692
4.31,-0.01855038879897294,0.06016623838576449,106.53526030665451
4.32,-0.20042817198231874,-0.004483496134840675,105.78308775302767
4.33,-0.1071036851232882,0.019225839357876116,104.12246014468533
4.34,-0.21531428645063036,0.006782237797195429,101.81149567697396
4.35,-0.11008090801695053,0.022797437973766148,99.11839528724573
4.36,-0.21649754170323973,-0.0015198291982510765,96.35874880027974
4.37,-0.11840186430949394,0.015084304792641933,93.79974887922761
4.38,-0.22184127510212084,-0.00982189619369758,91.60070284777974
4.39,-0.09404970782030725,0.023386371788088438,89.8281568031739
4.4,-0.205199362517034,-0.008055094750730706,88.36918403494599
4.41,-0.0975994735781354,0.008549039240162305,87.14614742965196
4.42,-0.20638261776964337,-0.002127760877551507,86.00175621200256
4.43,-0.09523296307291663,0.019833771037176547,84.76762859050224
4.44,-0.21829150934429267,-0.018142961054122223,83.3207551126812
4.45,-0.08511803913932028,0.02754690421830076,81.59257313290053
4.46,-0.20756587302225277,-0.010429827872998012,79.77465474926893
4.47,-0.11424138616322224,0.004996438489250413,78.13620917333918
4.48,-0.20103888437076228,0.00737117161151772,76.8466264708074
4.49,-0.11126416326955992,0.012120637856052335,76.01580852953593
4.5,-0.2337119971524924,-0.009232962379375289,75.65686291413225
4.51,-0.11305813091061286,0.010923772362429612,75.74659931798317
4.52,-0.2266124656368361,-0.008644028565052997,75.77987236660205
4.53,-0.11187487565800347,0.019225839357876116,75.75769033418946
4.54,-0.24325437822192292,-0.01932082868276681,76.07227188476797
4.55,-0.09641621832552602,0.032277372597857235,76.80125413178165
4.56,-0.2456208887271417,-0.021106627990711824,77.76617254172919
4.57,-0.13206655400091846,0.012709571670374627,78.68672688685157
4.58,-0.25157533451446634,-0.02644502804956873,79.40461811765896
4.59,-0.09996598408335418,0.019225839357876116,79.79683678168152
4.6,-0.20756587302225277,0.008549039240162305,79.8986724759393
4.61,-0.05301746922175599,0.039401571964659154,79.83111810450097
4.62,-0.20340539487598105,-0.009232962379375289,79.60627295777338
4.63,-0.0030917314664954897,0.10287343885661973,79.25841835857598
4.64,-0.1540903695091641,0.05125623971101755,78.83191837173396
4.65,-0.10294320697701649,0.0678793715668887,78.31568198104102
4.66,-0.2468041439797511,0.046525771331461074,77.68752715408456
4.67,-0.11305813091061286,0.04711470514578337,76.9585449070709
4.68,-0.28840892544246816,-0.04008549510387214,76.17309930482519
4.69,-0.16122807054909813,0.009745904733785027,75.39874471878578
4.7,-0.3020736151338927,-0.031175496429125205,74.6808534879784
4.71,-0.1677550592005886,-0.0033056285061960912,74.0073263219962
4.72,-0.3032950399107798,-0.04481596348342862,73.40135352745233
4.73,-0.16657180394797924,-0.01635716174617721,72.85184408814051
4.74,-0.27890471389731536,-0.03237236192274793,72.34669871365386
4.75,-0.1499298913628924,-0.012196629315964888,71.86474364578037
4.76,-0.29436337122979284,-0.024070294927301422,71.3928713199126
4.77,-0.022100154556801095,0.06609357225894369,70.91091625203912
4.78,0.20317637773031472,0.2529375743189354,70.45114321657822
4.79,1.572775247863539,0.3454571767624697,70.01355221352989
4.8,0.7946513259378963,0.05363097283328486,69.63141629151305
4.81,-0.019733644051582323,-0.14090716454285293,69.31784301513511
4.82,-0.348449587131325,-0.11541202974219111,69.05972481978864
4.83,-0.07740779523522041,-0.006858229257107982,68.83487967306104
4.84,-0.20401610726442462,-0.029408694986158328,68.62213381674032
4.85,-0.07679708284677686,0.012120637856052335,68.41947070242531
4.86,-0.20283285201181522,-0.012196629315964888,68.21781586231089
4.87,-0.058361202620637084,0.021600572480143423,68.01616102219646
4.88,-0.1932904709423847,-0.011607695501642597,67.79131587546887
4.89,-0.030421110849344513,0.04118737127260417,67.5331976801224
4.9,-0.15645688001438288,0.010334838548107319,67.24180643615703
4.91,-0.028665312732569295,0.03406317190580225,66.93831590178482
4.92,-0.13149401113675263,0.02693897253900033,66.62474262540688
4.93,0.017710659264863052,0.0625409715080318,66.31016107482837
4.94,-0.1124474185221693,0.01745903791490924,65.98549678224413
4.95,0.049811229182427336,0.0595773045714422,65.62554289263987
4.96,-0.048284448211318456,0.04829257277442795,65.22223321241101
4.97,0.10389744508395955,0.08862504012301589,64.7846422093627
4.98,0.014733436371200729,0.07735930619097979,64.41460557775271
4.99,0.1692818401716975,0.09574923948981781,64.34705120631438
5.0,0.09618720117985968,0.09871290642640741,65.35633368108711
5.01,0.29115713119046416,0.1509190393863319,68.54348842909569
5.02,0.18237398699895618,0.11355023897433354,73.79458046567548
5.03,0.35890803678342087,0.16159583950404569,80.11141833226003
5.04,0.25191886023296584,0.14497270764817455,86.80938384666086
5.05,0.38684812855471346,0.1704868403138145,93.03749358359507
5.06,0.23229972475421667,0.13490383920976118,97.99618610200892
5.07,0.3226469887195849,0.16870104100586947,101.55337748162748
5.08,0.08607227724626333,0.08625030700074858,104.13355116089163
5.09,0.1276770587089804,0.10346237267094202,105.90710547969805
5.1,-0.09462225068447308,0.049489438268050676,106.78228748579468
5.11,-0.032825790878841,0.05896937289214176,106.6693607753306
5.12,-0.21115380830435865,0.005585372303572706,105.5249695576812
5.13,-0.10473717461806943,0.03288530427715767,103.49430531772889
5.14,-0.2521478773786322,-0.008055094750730706,100.93631367087733
5.15,-0.12553956534942798,0.019225839357876116,98.15347687729817
5.16,-0.2652400242058909,-0.025248162555946006,95.41601242274477
5.17,-0.10592042987067882,0.02456423941673302,92.92456687313098
5.18,-0.24084969819242644,-0.008644028565052997,90.82634826174032
5.19,-0.08927851728559198,0.026350038724678036,89.1324476047791
5.2,-0.25039207926185697,-0.03592496267365982,87.75212022419582
5.21,-0.10653114225912237,0.012120637856052335,86.54017463510809
5.22,-0.23432270954093595,-0.01280456099526532,85.37360138504611
5.23,-0.08988922967403554,0.02693897253900033,84.1394737635458
5.24,-0.2081765854106963,0.010923772362429612,82.69159201152418
5.25,-0.09462225068447308,0.02693897253900033,81.0430636935887
5.26,-0.2402771553282606,-0.01576822793185492,79.3703367948395
5.27,-0.10771439751173176,0.023386371788088438,77.89019026839958
5.28,-0.24917065448496986,-0.005091427814141106,76.75689006695647
5.29,-0.13504377689458077,0.002621705366983107,76.02689954574222
5.3,-0.24501017633869815,-0.0009308953839287843,75.8141536894215
5.31,-0.1285167882430903,0.015084304792641933,76.09445391718056
5.32,-0.28543170254880584,-0.038888629610249414,76.59959929166722
5.33,-0.12733353299048092,0.021600572480143423,77.11583568236016
5.34,-0.2676065347111096,-0.022284495619356408,77.61997278264623
5.35,-0.13031075588414323,0.025761104910355746,78.17049049615864
5.36,-0.28424844729619647,-0.038888629610249414,78.75327298408934
5.37,-0.12553956534942798,0.021600572480143423,79.35924577863321
5.38,-0.28249264917942124,-0.024070294927301422,79.8986724759393
5.39,-0.15645688001438288,-0.0009308953839287843,80.27980012375558
5.4,-0.2836759044320306,-0.03533602885933752,80.44818191525113
5.41,-0.13447123403041494,0.019833771037176547,80.3584455114002
5.42,-0.27356098049843425,-0.022284495619356408,80.0438639608217
5.43,-0.1433647331871242,0.006782237797195429,79.5729999091545
5.44,-0.2806986815383683,-0.03237236192274793,79.0113911794358
5.45,-0.11069162040539408,0.018636905543553826,78.34996330386048
5.46,-0.20222213962337168,0.015084304792641933,77.61997278264623
5.47,-0.04351325767660319,0.06016623838576449,76.8355354546011
5.48,-0.18974070518455655,0.018636905543553826,76.06118086856168
5.49,-0.03874206714188793,0.06905723919553329,75.34228136355374
5.5,-0.21707008456740556,0.016262172421286518,74.70303552039098
5.51,-0.12733353299048092,0.06371883913667638,74.10815374205342
5.52,-0.25749161077751326,0.012120637856052335,73.5586443027416
5.53,-0.15584616762593934,0.004407504674928122,73.04240791204865
5.54,-0.3086387733096609,-0.041852296546839016,72.56045284417516
5.55,-0.1635945810543169,0.007960105425840013,72.06639848589481
5.56,-0.3116159962033232,-0.05015436354228552,71.5955344342276
5.57,-0.16538854869536984,-0.004483496134840675,71.12366210835984
5.58,-0.321120207748476,-0.06974116233474627,70.68607110531153
5.59,-0.16416712391848273,-0.014571362438232194,70.2595711184695
5.6,-0.2961573388708458,-0.05431489597249784,69.85626143824064
5.61,-0.1540903695091641,-0.008644028565052997,69.49731582283695
5.62,-0.26405676895328145,-0.03947756342457171,69.18273427225844
5.63,0.09023275539253504,0.13311803990181614,68.86815272167992
5.64,0.7506800339699605,0.32944197658589897,68.54348842909569
5.65,1.5496063466269616,0.18294943973947334,68.21781586231089
5.66,0.26023981652550926,-0.10652102893242232,67.89214329552608
5.67,-0.18023649363940375,-0.1142151642485684,67.60075205156073
5.68,-0.24501017633869815,-0.07033009614906856,67.38800619524
5.69,-0.060155170261690025,0.006193303982873136,67.24180643615703
5.7,-0.21768079695584913,-0.038299695795927124,67.10669769328037
5.71,-0.06313239315535235,0.019225839357876116,66.93831590178482
5.72,-0.20103888437076228,-0.028211829492535607,66.74775207787668
5.73,-0.049467703463927835,0.028724771846945343,66.52391520534967
5.74,-0.19210721568977532,-0.029408694986158328,66.2547059937969
5.75,-0.028665312732569295,0.03406317190580225,65.97339749183726
5.76,-0.1647778363069263,-0.021106627990711824,65.6930972640782
5.77,-0.02687134509151636,0.015673238606964224,65.43497906873174
5.78,-0.13088329874830906,-0.004483496134840675,65.15467884097268
5.79,0.04149027288988392,0.05423890451258529,64.84009729039417
5.8,-0.10771439751173176,-0.004483496134840675,64.47006065878418
5.81,0.07836203334216346,0.0655046384446214,64.07784199476161
5.82,-0.03874206714188793,0.028724771846945343,63.69570607274477
5.83,0.11698959191121823,0.0655046384446214,63.37104178016053
5.84,0.014160893507034897,0.03465210572012454,63.31457842492849
5.85,0.21447455691652045,0.11176443966638853,64.18976043102512
5.86,0.1288603139615898,0.08389457174345942,67.24180643615703
5.87,0.3208911906028097,0.14913324007838688,72.49289847273683
5.88,0.20615360062397706,0.10642603960753162,78.94484508219804
5.89,0.39875702012936276,0.18353837355379563,85.85656472712017
5.9,0.2471858392225283,0.12065544047615732,92.38614845002544
5.91,0.41478822032600604,0.1906435750556194,97.62614947039894
5.92,0.21981829031540157,0.11531704041730043,101.41826873875081
5.93,0.31909722296175674,0.17166470794245908,104.20110553232996
5.94,0.06706385415595773,0.07557350688303477,106.11985133601878
5.95,0.13008173873847692,0.10701497342185391,107.2087874726367
5.96,-0.10473717461806943,0.015673238606964224,107.32070590890021
5.97,-0.013779198264257678,0.0595773045714422,106.35578749895267
5.98,-0.22065801984951144,-0.024070294927301422,104.47031474388272
5.99,-0.06965938180684282,0.04711470514578337,102.03533254950098
6.0,-0.2390939000756512,-0.021106627990711824,99.33214941776703
6.01,-0.09641621832552602,0.014495370978319641,96.6279580118325
6.02,-0.24084969819242644,-0.040674428918194436,94.17079378503816
6.03,-0.06729287130162406,0.03109950496921265,92.06047588324064
6.04,-0.2283682637536113,-0.03651389648798211,90.36657522627942
6.05,-0.05122350158070305,0.03465210572012454,88.96406581328355
6.06,-0.2266124656368361,-0.04660176279137363,87.77531053080898
6.07,-0.06431564840796174,0.012709571670374627,86.7317467332168
6.08,-0.21413103119802096,-0.037121828167282545,85.66499262901146
6.09,-0.060155170261690025,0.023386371788088438,84.39759195889226
6.1,-0.2283682637536113,-0.04363809585478403,82.87106481922602
6.11,-0.05897191500908064,0.029902639475589927,81.1882551784711
6.12,-0.2533311326312416,-0.060831163659999334,79.5729999091545
6.13,-0.06313239315535235,0.03288530427715767,78.17049049615864
6.14,-0.24443763347453232,-0.04601282897705134,77.12692669856645
6.15,-0.07381985995311453,0.026350038724678036,76.47558156499684
6.16,-0.2468041439797511,-0.04719069660569592,76.2739267248824
6.17,-0.0934389954318637,0.01687010410058695,76.46449054879055
6.18,-0.2533311326312416,-0.04601282897705134,76.81234514798794
6.19,-0.09404970782030725,0.02101163866582113,77.21666310241737
6.2,-0.23668922004615472,-0.028819761171836038,77.64316308925939
6.21,-0.08156827338149213,0.031688438783534945,78.1140271409266
6.22,-0.2456208887271417,-0.04246022822613945,78.64135454782583
6.23,-0.0934389954318637,0.018636905543553826,79.16868195472506
6.24,-0.25039207926185697,-0.037710761981604835,79.64055428059284
6.25,-0.09404970782030725,0.009745904733785027,79.93194552455819
6.26,-0.2581023231659568,-0.05372596215817555,80.06604599323428
6.27,-0.08988922967403554,0.015673238606964224,79.98840887979023
6.28,-0.2509646221260228,-0.041263362732516726,79.6960093616243
6.29,-0.07561382759416747,0.031688438783534945,79.2362363261634
6.3,-0.25039207926185697,-0.04422702966910632,78.66353658023841
6.31,-0.08870597442142615,0.018047971729231532,78.03538175328197
6.32,-0.22779572088944547,-0.03237236192274793,77.4072269263255
6.33,-0.07084263705945221,0.030510571154890358,76.75689006695647
6.34,-0.24501017633869815,-0.04601282897705134,76.06118086856168
6.35,-0.10237066411285066,-0.0003419615696064922,75.3654716701669
6.36,-0.23550596479354535,-0.041852296546839016,74.65867145556581
6.37,-0.024504834586297587,0.05779150526349718,73.98514428958362
6.38,-0.1635945810543169,-0.007466160936408413,73.34589844642086
6.39,-0.004885699107548429,0.05304203901896257,72.76210768428959
6.4,-0.1392042550408525,0.03109950496921265,72.25696230980294
6.41,0.01713811640069722,0.08389457174345942,71.78609825813574
6.42,-0.20874912827486214,0.011531704041730042,71.34850725508743
6.43,-0.06908683894267699,0.0797340393132471,70.89982523583282
6.44,-0.20458865012859045,0.007960105425840013,70.43904392617134
6.45,-0.1017599517244071,0.010334838548107319,69.97927089071044
6.46,-0.2652400242058909,-0.04719069660569592,69.53058887145583
6.47,-0.11660789666844101,0.006782237797195429,69.09299786840752
6.48,-0.2622628013122285,-0.04601282897705134,68.71187022059124
6.49,-0.10355391936546005,0.013298505484696918,68.36401562139385
6.5,-0.2587130355544004,-0.05431489597249784,68.06052508702163
6.51,-0.10118740886024127,0.0014438377383385226,67.76913384305628
6.52,-0.2592855784185662,-0.06381382846156707,67.45455229247776
6.53,-0.1071036851232882,0.00737117161151772,67.15207003230611
6.54,-0.13088329874830906,0.007960105425840013,66.82639746552131
6.55,0.30600507613449807,0.2647922420652938,66.53500622155596
6.56,1.3100162427357,0.3205509757761302,66.2547059937969
6.57,1.1049313887914993,0.12006650666183503,66.01876983086302
6.58,-0.004274986719104875,-0.17234863108167206,65.80501570034171
6.59,-0.17370950498791327,-0.08752316395428386,65.59226984402099
6.6,-0.15347965712072056,-0.05076229522158595,65.40170602011285
6.61,-0.025077377450463418,0.009745904733785027,65.21114219620472
6.62,-0.17786998313418498,-0.04481596348342862,64.98629704947713
6.63,-0.034009046131450386,0.009745904733785027,64.77355119315641
6.64,-0.1594341029080452,-0.029408694986158328,64.5708880788414
6.65,-0.0019084762138861049,0.032277372597857235,64.38032425493326
6.66,-0.13683774453563372,-0.0228734294336787,64.18976043102512
6.67,0.012977638254425513,0.03584897121374726,63.98810559091069
6.68,-0.11305813091061286,-0.014571362438232194,63.75216942797681
6.69,0.03553582710255927,0.03702683884239185,63.47186920021775
6.7,-0.08332407149826734,-0.006858229257107982,63.15728764963924
6.71,0.07179687516639527,0.05125623971101755,62.832623357055006
6.72,-0.024504834586297587,0.023386371788088438,62.506950790270196
6.73,0.11462308140599946,0.06371883913667638,62.1701872072791
6.74,0.004656681961882096,0.02101163866582113,61.866696672906876
6.75,0.16989255256014105,0.08685823868004902,61.67613284899874
6.76,0.07301829994328238,0.04829257277442795,61.91206901193262
6.77,0.2447811591930318,0.11355023897433354,63.67352404033218
6.78,0.16752604205492228,0.08982190561663862,67.91533360213924
6.79,0.3416935813341682,0.15268584082929876,73.98514428958362
6.8,0.2430253610762566,0.11888863903319045,80.80712753065481
6.81,0.3856648733021041,0.16811210719154718,87.77531053080898
6.82,0.2745152186053773,0.13015437296522656,93.93485762210427
6.83,0.394596541983091,0.1710757741281368,98.63644021937225
6.84,0.24359790394042244,0.12777963984295926,101.9909684846758
6.85,0.287607365432636,0.13963430758931764,104.36948732382551
6.86,0.08252251148843517,0.0708430385034783,105.91819649590434
6.87,0.12351658056270871,0.09812397261208512,106.5574423390671
6.88,-0.08927851728559198,0.006193303982873136,106.26605109510174
6.89,-0.004274986719104875,0.05482783832690758,104.91899676313734
6.9,-0.168938314453198,-0.017535029374821796,102.79859611933409
6.91,-0.06729287130162406,0.019833771037176547,100.21842244006996
6.92,-0.17664855835729787,-0.015160296252554488,97.4466766626971
6.93,-0.07740779523522041,0.010923772362429612,94.74248525676258
6.94,-0.17073228209425095,-0.01932082868276681,92.30750306238082
6.95,-0.056605404503861874,0.01745903791490924,90.26574780622221
6.96,-0.1606173581606546,-0.020498696311411393,88.60512019787987
6.97,-0.049467703463927835,0.012120637856052335,87.27016515632234
6.98,-0.16180061341326396,-0.037710761981604835,86.15904698729182
6.99,-0.06313239315535235,-0.002127760877551507,85.14976451251908
7.0,-0.16657180394797924,-0.041852296546839016,84.03864634348858
7.01,-0.05301746922175599,0.010923772362429612,82.69159201152418
7.02,-0.17309879259946973,-0.038299695795927124,81.09851877462017
7.03,-0.058361202620637084,0.015673238606964224,79.47217248909729
7.04,-0.18260300414462252,-0.038888629610249414,77.9910176884568
7.05,-0.08275152863410151,-0.0009308953839287843,76.76798108316277
7.06,-0.18023649363940375,-0.028211829492535607,75.89279907706613
7.07,-0.08214081624565796,0.006782237797195429,75.45520807401782
7.08,-0.19092396043716592,-0.03533602885933752,75.44411705781152
7.09,-0.09641621832552602,-0.0003419615696064922,75.72441728557058
7.1,-0.18260300414462252,-0.02644502804956873,76.07227188476797
7.11,-0.09286645256769786,0.0038185708606058295,76.44230851637796
7.12,-0.1986723738655435,-0.04304916204046174,76.85771748701369
7.13,-0.08454549627515445,0.012709571670374627,77.33967255488717
7.14,-0.19092396043716592,-0.037710761981604835,77.85590894558011
7.15,-0.07798033809938625,0.019833771037176547,78.36105432006677
7.16,-0.20699333015808694,-0.056100695280442855,78.7653722744962
7.17,-0.10355391936546005,-0.004483496134840675,79.02349046984267
7.18,-0.17905323838679435,-0.027622895678213313,79.06785453466784
7.19,-0.08927851728559198,0.006782237797195429,78.888381726966
7.2,-0.1772592707457414,-0.022284495619356408,78.52943611156232
7.21,-0.09580550593708247,0.003210639181305399,78.1029361247203
7.22,-0.18321371653306606,-0.03178342810842563,77.61997278264623
7.23,-0.09164502779081075,0.004996438489250413,77.0815543595407
7.24,-0.1837862593972319,-0.03296129573707022,76.47558156499684
7.25,-0.09286645256769786,0.00737117161151772,75.80306267321521
7.26,-0.1956951509718812,-0.04481596348342862,75.09626245861413
7.27,-0.1148520985516658,-0.012196629315964888,74.41164427642563
7.28,-0.19748911861293414,-0.04601282897705134,73.78348944946919
7.29,-0.06729287130162406,0.025172171096033452,73.17751665492531
7.3,-0.13981496742929606,-0.008644028565052997,72.57154386038145
7.31,-0.0019084762138861049,0.057202571449174885,71.9655710658376
7.32,-0.11721860905688457,-0.002716694691873799,71.3928713199126
7.33,-0.013779198264257678,0.07260983994644518,70.89982523583282
7.34,-0.1124474185221693,0.02456423941673302,70.41686189375875
7.35,-0.08275152863410151,0.06371883913667638,69.96817987450414
7.36,-0.17073228209425095,0.028724771846945343,69.53058887145583
7.37,-0.08691200678037321,0.04473997202351606,69.09299786840752
7.38,-0.22779572088944547,-0.05431489597249784,68.6443158491529
7.39,-0.1338605216419714,0.006782237797195429,68.21781586231089
7.4,-0.22779572088944547,-0.04246022822613945,67.80240689167516
7.41,-0.14397544557556774,-0.005091427814141106,67.42127924385888
7.42,-0.2266124656368361,-0.05076229522158595,67.08451566086778
7.43,-0.14160893507034897,-0.01635716174617721,66.78203340069614
7.44,-0.21947476459690207,-0.05194016285023054,66.53500622155596
7.45,-0.13622703214719017,-0.018731894868444517,66.28797904241578
7.46,-0.21413103119802096,-0.05372596215817555,66.00767881465673
7.47,0.04210098527832747,0.08448350555778171,65.68200624787191
7.48,0.42669711190065535,0.2920731761739006,65.34524266488081
7.49,1.6209070179777465,0.30869630802977177,65.00847908188972
7.5,0.6715927796665203,-0.03651389648798211,64.75036088654325
7.51,0.004045969573438542,-0.15099503084624444,64.54870604642882
7.52,-0.22302453035473022,-0.11719782905013613,64.40250628734584
7.53,-0.054811436862808934,-0.016946095560499502,64.26840581866975
7.54,-0.14576941321662068,-0.041263362732516726,64.1111150433805
7.55,-0.07977430574043919,-0.004483496134840675,63.92055121947236
7.56,-0.1511131466155018,-0.037121828167282545,63.707805363151635
7.57,-0.061949137902742965,0.008549039240162305,63.49405123263034
7.58,-0.12435631009681859,-0.024070294927301422,63.27021436010332
7.59,-0.049467703463927835,0.009745904733785027,63.07864226199461
7.6,-0.09164502779081075,-0.002127760877551507,62.888078438086474
7.61,-0.013779198264257678,0.030510571154890358,62.652142275152585
7.62,-0.07561382759416747,-0.0003419615696064922,62.38293306359982
7.63,0.018321371653306606,0.04829257277442795,62.08045080342818
7.64,-0.04114674717138442,0.013298505484696918,61.75477823664337
7.65,0.05755964261080492,0.061344106014409074,61.40692363744598
7.66,0.0004962038156103872,0.03109950496921265,61.08225934486174
7.67,0.08191179909999162,0.06016623838576449,60.82414114951527
7.68,0.046261463424599185,0.04057943959330374,60.722305455257484
7.69,0.16096088387915408,0.10049870573435243,61.09335036106803
7.7,0.14256317317729203,0.0880361063086936,62.98890585814369
7.71,0.24420861632886598,0.12895750747160384,67.36481588862684
7.72,0.2138638445280769,0.10760390723617622,73.4356348502718
7.73,0.31016555428076975,0.15802424088815567,80.19006371990466
7.74,0.25428537073818464,0.12599384053501422,87.01204696097587
7.75,0.3214637334669755,0.16098790782474526,93.11613897123969
7.76,0.2661942623128339,0.13904537377499535,97.7834402456882
7.77,0.2905464188020206,0.1651484402549576,100.9695867194962
7.78,0.14847944944033895,0.10167657336299701,103.12426868611891
7.79,0.13008173873847692,0.11472810660297814,104.3916693562381
7.8,-0.014962453516867062,0.05600570595555217,104.84135964969329
7.81,-0.026260632703072804,0.057202571449174885,104.43704169526384
7.82,-0.13504377689458077,0.008549039240162305,103.07889634709316
7.83,-0.10828694037589759,0.02456423941673302,100.95849570328991
7.84,-0.17191553734686033,-0.002127760877551507,98.3551317174126
7.85,-0.12076837481471271,0.019225839357876116,95.50574882659569
7.86,-0.1915346728256095,-0.03058656261480291,92.72291203301656
7.87,-0.11782932144532811,0.018636905543553826,90.17601140237129
7.88,-0.18141974889201312,-0.0258370963702683,88.03242045195488
7.89,-0.11721860905688457,0.008549039240162305,86.29415573016848
7.9,-0.16000664577221102,-0.011018761687320303,84.87954702676575
7.91,-0.11424138616322224,0.011531704041730042,83.67970072808488
7.92,-0.1606173581606546,-0.011018761687320303,82.56858255905438
7.93,-0.12790607585464675,-0.0003419615696064922,81.34554595376035
7.94,-0.17248808021102616,-0.01576822793185492,79.8986724759393
7.95,-0.12615027773787152,0.010334838548107319,78.29349994862844
7.96,-0.18023649363940375,-0.023481361112979132,76.67824467931185
7.97,-0.14397544557556774,-0.0009308953839287843,75.29791729872856
7.98,-0.1849695146498413,-0.012196629315964888,74.25435350113638
7.99,-0.15645688001438288,0.00737117161151772,73.61510765797364
8.0,-0.20401610726442462,-0.029408694986158328,73.4356348502718
8.01,-0.17607601549313204,-0.012196629315964888,73.64838070659252
8.02,-0.225391040859949,-0.041263362732516726,74.02950835440879
8.03,-0.17607601549313204,0.0008549039240162305,74.43382630883822
8.04,-0.20222213962337168,-0.015160296252554488,74.87141731188653
8.05,-0.17248808021102616,0.00737117161151772,75.3654716701669
8.06,-0.21768079695584913,-0.021106627990711824,75.96035344850446
8.07,-0.19271792807821886,-0.012196629315964888,76.57741725925463
8.08,-0.225391040859949,-0.0258370963702683,77.13801771477274
8.09,-0.1986723738655435,-0.014571362438232194,77.55342668540847
8.1,-0.21054309591591508,-0.01635716174617721,77.73289949311031
8.11,-0.1945118957192718,-0.00982189619369758,77.69861817029086
8.12,-0.20874912827486214,-0.016946095560499502,77.48587231397013
8.13,-0.19210721568977532,-0.0015198291982510765,77.10474466615386
8.14,-0.20638261776964337,-0.013393494809587611,76.61069030787351
8.15,-0.1945118957192718,-0.007466160936408413,76.06118086856168
8.16,-0.21115380830435865,-0.017535029374821796,75.4884811226367
8.17,-0.18855744993194717,0.002621705366983107,74.87141731188653
8.18,-0.21352031880957742,-0.018142961054122223,74.2210804525175
8.19,-0.1849695146498413,0.006193303982873136,73.53646227032901
8.2,-0.21290960642113385,-0.008644028565052997,72.81857103952163
8.21,-0.20042817198231874,-0.002716694691873799,72.13395285733314
8.22,-0.20042817198231874,-0.0033056285061960912,71.49369873996982
8.23,-0.18023649363940375,0.008549039240162305,70.9330982844517
8.24,-0.17489276024052264,0.0008549039240162305,70.39467986134616
8.25,-0.15466291237332994,0.02101163866582113,69.90062550306581
8.26,-0.11366884329905641,0.04118737127260417,69.41867043519233
8.27,-0.11187487565800347,0.0595773045714422,68.94679810932455
8.28,-0.11542464141583163,0.06668250607326598,68.47593405765735
8.29,-0.15347965712072056,0.041776305086926466,68.00507000599016
8.3,-0.1998556291181529,0.042954172715571046,67.5331976801224
8.31,-0.1915346728256095,0.05245310520464028,67.07342464466149
8.32,-0.205199362517034,0.018636905543553826,66.65801567402576
8.33,-0.2468041439797511,-0.011018761687320303,66.32125209103467
8.34,-0.24798739923236046,-0.015160296252554488,66.02986084706932
8.35,-0.26405676895328145,-0.020498696311411393,65.74956061931024
8.36,-0.2527585897670757,-0.03237236192274793,65.4581693753449
8.37,-0.2581023231659568,-0.0258370963702683,65.15467884097268
8.38,-0.25691906791334745,-0.04363809585478403,64.85219658080103
8.39,-0.25157533451446634,-0.024659228741623716,64.54870604642882
8.4,-0.2551251002722945,-0.037121828167282545,64.24622378625716
8.41,-0.22123056271367728,0.008549039240162305,63.95382426809124
8.42,-0.006068954360157814,0.1509190393863319,63.684615056538476
8.43,0.7161747840228997,0.3632581762469854,63.4375878773983
8.44,1.4734963152171838,0.17996677493790558,63.20265998866498
8.45,0.3416935813341682,-0.1017715626878877,62.977814841937395
8.46,-0.2592855784185662,-0.15515556327645677,62.76506898561667
8.47,-0.2456208887271417,-0.07449062857928088,62.55131485509537
8.48,-0.15168568947966762,-0.011018761687320303,62.34966001498094
8.49,-0.20638261776964337,-0.0199097624970891,62.159096191072805
8.5,-0.15584616762593934,0.005585372303572706,61.99071439957726
8.51,-0.19390118333082826,-0.00982189619369758,61.866696672906876
8.52,-0.13622703214719017,0.01687010410058695,61.743687220437074
8.53,-0.16298386866587336,0.01687010410058695,61.58639644514782
8.54,-0.12615027773787152,0.025172171096033452,61.40692363744598
8.55,-0.1511131466155018,0.02101163866582113,61.18308676491896
8.56,-0.09107248492664492,0.03999050577898145,60.924968569572485
8.57,-0.11721860905688457,0.038812638150336864,60.65575935801972
8.58,-0.055383979726974765,0.048900504453728386,60.397641162673246
8.59,-0.06610961604901468,0.0655046384446214,60.15061398353307
8.6,-0.025688089838906972,0.0625409715080318,59.91467782059919
8.61,-0.05122350158070305,0.050078372082372966,59.65655962525271
8.62,0.03137534895628757,0.08982190561663862,59.376259397493655
8.63,0.020687882158525378,0.0933745063675505,59.16351354117293
8.64,0.09320997828619736,0.10167657336299701,59.342986348874774
8.65,0.08725553249887272,0.09516030567549552,61.13771442589321
8.66,0.20852011112919583,0.1509190393863319,65.60336086022728
8.67,0.17405303070641276,0.13194017227317156,71.88692567819295
8.68,0.2703547404591056,0.1675231733772249,78.75327298408934
8.69,0.23409369239526961,0.16573737406927988,85.60953754798
8.7,0.24657512683408475,0.13667064065272805,91.73581159065641
8.71,0.2174517798101828,0.16395157476133487,96.4252948975175
8.72,0.19844335671987717,0.12481597290636964,99.5902676131135
8.73,0.08725553249887272,0.11355023897433354,101.60984083685953
8.74,0.047444718677208564,0.1022655071773193,102.69776869927688
8.75,-0.08927851728559198,0.06727143988758827,102.92261384600447
8.76,-0.11366884329905641,0.048900504453728386,102.20371434099653
8.77,-0.2081765854106963,0.029313705661267637,100.58845907167994
8.78,-0.18676348229089423,0.019225839357876116,98.31076765258743
8.79,-0.24501017633869815,0.01745903791490924,95.58439421424032
8.8,-0.19924491672970934,0.004407504674928122,92.58881156434045
8.81,-0.24146041058086998,0.01687010410058695,89.63759297926575
8.82,-0.18676348229089423,0.013298505484696918,87.00095594476957
8.83,-0.2509646221260228,-0.0015198291982510765,84.75653757429595
8.84,-0.1879467375435036,0.01745903791490924,82.94971020687065
8.85,-0.24501017633869815,0.0038185708606058295,81.5028367290496
8.86,-0.17012156970580739,0.022208504159443854,80.29089113996187
8.87,-0.22718500850100193,0.018047971729231532,79.15759093851877
8.88,-0.1849695146498413,0.009156970919462736,77.91237230081217
8.89,-0.2509646221260228,0.0038185708606058295,76.47558156499684
8.9,-0.1932904709423847,0.008549039240162305,74.93897168332488
8.91,-0.2628735137006721,0.010923772362429612,73.4356348502718
8.92,-0.20283285201181522,0.012709571670374627,71.83046232296091
8.93,-0.2747442357510437,-0.0038945623205183834,70.63061602428006
8.94,-0.21531428645063036,0.004996438489250413,70.21520705364432
8.95,-0.28543170254880584,-0.00626929544278569,70.54087962042914
8.96,-0.22363524274317376,-0.0038945623205183834,71.33741623888113
8.97,-0.28840892544246816,-0.009232962379375289,72.09967153451369
8.98,-0.22779572088944547,-0.011607695501642597,72.72883463567071
8.99,-0.2967298817350116,-0.02644502804956873,73.24406275216307
9.0,-0.24798739923236046,-0.014571362438232194,73.78348944946919
9.01,-0.2931801159771834,-0.010429827872998012,74.40055326021934
9.02,-0.21768079695584913,0.004407504674928122,75.12953550723302
9.03,-0.30447829516338915,-0.025248162555946006,75.77987236660205
9.04,-0.232528741899883,-0.006858229257107982,76.24065367626352
9.05,-0.2961573388708458,-0.00982189619369758,76.37475414493962
9.06,-0.22123056271367728,-0.010429827872998012,76.18419032103148
9.07,-0.31337179432009843,-0.029408694986158328,75.74659931798317
9.08,-0.2361166771819889,-0.006858229257107982,75.17490784625876
9.09,-0.27951542628575893,-0.002127760877551507,74.58002606792118
9.1,-0.22897897614205487,-0.013393494809587611,73.96296225717103
9.11,-0.30982202856227026,-0.028211829492535607,73.33480743021457
9.12,-0.21707008456740556,0.004407504674928122,72.67237128043867
9.13,-0.3080280609212173,-0.024070294927301422,71.9544800496313
9.14,-0.2242077856073396,-0.007466160936408413,71.20230749600447
9.15,-0.3032950399107798,-0.023481361112979132,70.4733252489908
9.16,-0.22184127510212084,-0.013393494809587611,69.82198011542118
9.17,-0.26940050235216256,-0.01932082868276681,69.29465270852195
9.18,-0.1463419560807865,0.032277372597857235,68.86815272167992
9.19,-0.22897897614205487,0.006782237797195429,68.46484304145106
9.2,-0.12435631009681859,0.05125623971101755,68.04943407081534
9.21,-0.18439697178567546,0.04356210439487148,67.60075205156073
9.22,-0.1932904709423847,0.026350038724678036,67.11778870948666
9.23,-0.2890196378309117,0.03761577265671414,66.64692465781947
9.24,-0.19092396043716592,0.031688438783534945,66.20933365477116
9.25,-0.32883045165257585,-0.031175496429125205,65.81711499074858
9.26,-0.25455255740812865,-0.022284495619356408,65.46926039155119
9.27,-0.33123513168207236,-0.020498696311411393,65.16576985717897
9.28,-0.2390939000756512,-0.010429827872998012,64.86328759700733
9.29,-0.33478489743990053,-0.03296129573707022,64.55979706263511
9.3,-0.24084969819242644,-0.01576822793185492,64.25731480246345
9.31,-0.32466997350630417,-0.02999762880048062,63.96491528429753
9.32,-0.2497813668734134,-0.025248162555946006,63.69570607274477
9.33,-0.3514268100249873,-0.029408694986158328,63.41540584498571
9.34,-0.12019583195054688,0.048900504453728386,63.16837866584553
9.35,0.19722193194299006,0.2642033082509715,62.92235976090593
9.36,1.50204711937692,0.2754690421830076,62.69751461417834
9.37,0.7548405121162322,-0.0009308953839287843,62.46157845124445
9.38,-0.1017599517244071,-0.14803136390965485,62.21455127210427
9.39,-0.37402316839739885,-0.11007362968333421,61.97962338337096
9.4,-0.17248808021102616,-0.028819761171836038,61.743687220437074
9.41,-0.2468041439797511,-0.028819761171836038,61.575305428941526
9.42,-0.15466291237332994,0.0014438377383385226,61.44120496026543
9.43,-0.2361166771819889,-0.006858229257107982,61.283914184976176
9.44,-0.14279219032295837,0.013298505484696918,61.10444137727433
9.45,-0.20164959675920585,0.012709571670374627,60.87959623054674
9.46,-0.11603535380427518,0.028135838032623053,60.64466834181343
9.47,-0.1998556291181529,0.007960105425840013,60.43091421129213
9.48,-0.09404970782030725,0.032277372597857235,60.2292593711777
9.49,-0.17664855835729787,0.015084304792641933,60.049786563475855
9.5,-0.07084263705945221,0.04057943959330374,59.85922273956772
9.51,-0.1475252113333959,0.025761104910355746,59.62328657663383
9.52,-0.025688089838906972,0.046525771331461074,59.286522993642734
9.53,-0.08034684860460502,0.05423890451258529,58.89430432962016
9.54,0.018893914517472438,0.0678793715668887,58.52325942380961
9.55,-0.04053603478294087,0.06668250607326598,58.23186817984426
9.56,0.10985189087128419,0.10464024029958661,58.16431380840592
9.57,0.042673528142493304,0.08685823868004902,58.91648636203275
9.58,0.17225906306535982,0.10997864035844351,61.800150575669115
9.59,0.13779198264257678,0.11592497209660085,67.01696128942945
9.6,0.2745152186053773,0.14438377383385226,73.35698946262715
9.61,0.18596192228106206,0.12422703909204735,80.10032731605374
9.62,0.2935236416956829,0.15150797320065418,86.59663799034013
9.63,0.1906949432914996,0.12361910741274693,92.15122056129213
9.64,0.24955234972774706,0.13194017227317156,96.1903670087842
9.65,0.08072854384738223,0.10108763954867472,98.81591302707409
9.66,0.08072854384738223,0.0880361063086936,100.42007728018439
9.67,-0.09462225068447308,0.05482783832690758,101.12687749478546
9.68,-0.058361202620637084,0.0625409715080318,101.02605007472825
9.69,-0.23134548664727364,0.00737117161151772,100.0500406485744
9.7,-0.15584616762593934,0.030510571154890358,98.34404070120631
9.71,-0.2925694035887399,-0.01280456099526532,96.11172162113957
9.72,-0.1915346728256095,0.003210639181305399,93.54163068388114
9.73,-0.28783638257830235,-0.013982428623909903,90.79307521312144
9.74,-0.17607601549313204,0.009156970919462736,88.13425614621266
9.75,-0.26344605656483794,0.0008549039240162305,85.74363801665609
9.76,-0.15466291237332994,0.014495370978319641,83.73515580911635
9.77,-0.277721458644706,-0.014571362438232194,82.15317358841864
9.78,-0.1392042550408525,0.023386371788088438,80.89686393450575
9.79,-0.24917065448496986,-0.00626929544278569,79.84220912070727
9.8,-0.14870846658600528,0.007960105425840013,78.80973633932138
9.81,-0.29081360547196466,-0.03237236192274793,77.59779075023364
9.82,-0.15764013526699228,0.00737117161151772,76.1509172724126
9.83,-0.268789789963719,-0.013393494809587611,74.61329911654006
9.84,-0.15168568947966762,0.011531704041730042,73.16642563871902
9.85,-0.28485915968464004,-0.029408694986158328,71.99884411445647
9.86,-0.15466291237332994,0.009745904733785027,71.2698618674428
9.87,-0.28008796914992473,-0.02703396186389102,70.98956163968374
9.88,-0.17191553734686033,-0.005680361628463398,71.15794343117929
9.89,-0.3020736151338927,-0.041263362732516726,71.56125311140815
9.9,-0.1784425259983508,-0.0038945623205183834,72.04421645348222
9.91,-0.29791313698762095,-0.03237236192274793,72.537262537562
9.92,-0.1677550592005886,0.004996438489250413,73.09887126728069
9.93,-0.2967298817350116,-0.024659228741623716,73.78348944946919
9.94,-0.18676348229089423,-0.005680361628463398,74.54574474510173
9.95,-0.3199369524958666,-0.04956542972796323,75.24145394349652
9.96,-0.18080903650356958,0.0020327715526608147,75.71332626936429
9.97,-0.3145932190969855,-0.047798628284996356,75.9482541580976
9.98,-0.1742820478520791,-0.005680361628463398,75.92607212568501
9.99,-0.3062340932801644,-0.038299695795927124,75.66795393033854
