time_s,ECG1,ECG2,NIBP
0.0,-0.13911552163763322,-0.07179762930690126,97.36550068236014
0.01,-0.1344969982834663,0.0072232578164667,96.29618693756683
0.02,-0.14313923516588467,-0.07237238315466313,95.34691228412453
0.03,-0.1448536870170527,0.017599894851734993,94.56734807017844
0.04,-0.14772276970676243,-0.06718406463702899,94.02648227926363
0.05,-0.13852071181171777,0.005498996273181101,93.47181889164182
0.06,-0.14600831785559443,-0.0712228754591394,92.77228073859638
0.07,-0.1448536870170527,0.006648503968704833,92.16518648348793
0.08,-0.15349592389947106,-0.07352189085018686,91.57051006541577
0.09,-0.14772276970676243,0.008372765511990433,91.04344187120799
0.1,-0.14369905617851098,-0.07063258772360018,90.51499391732949
0.11,-0.14138979450142752,0.0072232578164667,90.14521832558161
0.12,-0.14947221037121958,-0.06775881848479084,89.61677037170311
0.13,-0.13680625996054976,0.005498996273181101,89.11591761123863
0.14,-0.14369905617851098,-0.072947137002425,88.71992658574743
0.15,-0.12470013056250623,0.017599894851734993,88.39016402444989
0.16,-0.09996303956708201,-0.06544426920596604,88.09903473393197
0.17,-0.0826785658022453,0.02971632731806623,87.84929823353508
0.18,-0.05101368977557073,-0.042951199704366505,87.57196653972417
0.19,-0.026276598780146515,0.05163464297190389,87.30705268294957
0.2,-0.024527158115689358,-0.01699407322841843,87.00350555539535
0.21,-0.04870442809848728,0.05048513527638016,86.72617386158444
0.22,-0.10227230124416546,-0.06083070453609376,86.46263976448054
0.23,-0.14600831785559443,0.005498996273181101,86.21152350441295
0.24,-0.16329279162043114,-0.072947137002425,85.89555853982242
0.25,-0.17595874203110096,-0.0008543638277541258,85.65686011679114
0.26,-0.1972319405109,-0.08159951249440768,85.37952842298023
0.27,-0.1966721194982737,-0.004893174649864539,84.93110653000238
0.28,-0.19954120218798346,-0.07756070167229727,84.72000330038513
0.29,-0.19954120218798346,-0.0008543638277541258,84.61514156541185
0.3,-0.23466997073028317,-0.08967713413862852,84.4164561728309
0.31,-0.058501295819447366,0.1231526622988129,84.20535294321364
0.32,0.5868323764855091,0.23216948672023935,84.0204651473397
0.33,1.1878702111664103,0.47555444041572376,83.71691801978547
0.34,0.5045036988161552,0.17045335058083677,83.39957329552423
0.35,-0.08439301765341331,0.04874533984531721,83.17605222887067
0.36,-0.2738224528008344,-0.06025595068833189,83.06981073422669
0.37,-0.1857206209387719,0.02106395182608354,82.9511514025464
0.38,-0.18285153824906217,-0.06833357233255272,82.6876173054425
0.39,-0.18687525177731362,0.007798011664228566,82.4227034486679
0.4,-0.18113708639789414,-0.07179762930690126,82.25161324950098
0.41,-0.1736494803540175,0.004924242425419234,82.1467515145277
0.42,-0.17707838405635354,-0.072947137002425,82.13295391782069
0.43,-0.16329279162043114,0.010687314790815246,81.85562222400978
0.44,-0.15811444725363794,-0.061405458383855624,81.45963119851858
0.45,-0.1511866622223876,0.02106395182608354,81.26232556560832
0.46,-0.1511866622223876,-0.053343370627412144,81.30095883638796
0.47,-0.1344969982834663,0.03145612274912918,81.222312535158
0.48,-0.1344969982834663,-0.04007743046555717,80.89254997386045
0.49,-0.11434344182891985,0.04355702132768307,80.52277438211257
0.5,-0.11031972830066838,-0.026811490303702203,80.25786052533797
0.51,-0.08670227933049675,0.06028701846388659,80.24544268830167
0.52,-0.07519095975836866,-0.015844565532894695,80.53519221914888
0.53,-0.04814460708586099,0.08163058026996238,81.78939375981612
0.54,-0.023372527277147632,0.021638705673845404,85.47197232091719
0.55,0.016899596818656146,0.12200315460328916,94.09271074345727
0.56,0.05720670972774907,0.07297820477797969,108.3483876611404
0.57,0.11304885573722155,0.18486879843821546,123.14631012940903
0.58,0.1545105994848562,0.13469434091738228,133.01987033294566
0.59,0.21091256650695497,0.24082186221222204,136.75487976153337
0.6,0.2454465252233393,0.18082998761610505,135.1847132562756
0.61,0.2742423185603041,0.2708022656225032,130.04924776192632
0.62,0.2897773516606837,0.19641047705678485,122.55163371133689
0.63,0.2725278667091361,0.2511984992474903,114.90914489532383
0.64,0.21437645902258015,0.13295454548631933,109.60258920180765
0.65,0.1429992799127281,0.1612262212410922,107.34530238054074
0.66,0.05720670972774907,0.030291081165828095,107.02795765627951
0.67,-0.008992125015309792,0.07123840934691675,107.04175525298652
0.68,-0.06367964018624056,-0.0354638657956849,106.3546349369774
0.69,-0.08439301765341331,0.02682702419147955,105.0217870950802
0.7,-0.11262898997775184,-0.0642947615104423,103.38539212562877
0.71,-0.11262898997775184,0.01011256094305338,102.31607838083546
0.72,-0.1120341801518364,-0.06718406463702899,102.27606535038514
0.73,-0.10629601477241693,0.007798011664228566,102.97560350343056
0.74,-0.11087954931329468,-0.06890832618031459,103.75516771737665
0.75,-0.09821359890262485,0.014151371765163793,103.97868878403021
0.76,-0.10339194326941804,-0.06544426920596604,103.58269775853901
0.77,-0.09132080268466365,0.018190182587274204,102.7782978705203
0.78,-0.09705896806408314,-0.0642947615104423,101.70898412572701
0.79,-0.09188062369728994,0.019339690282797938,100.44098498835275
0.8,-0.09593932603883056,-0.06025595068833189,98.9108315135453
0.81,-0.09534451621291512,0.017025141003973124,97.33928524861682
0.82,-0.1005228605797083,-0.06833357233255272,96.19132520259356
0.83,-0.09132080268466365,0.009537807095291513,95.92779110548966
0.84,-0.09705896806408314,-0.07583644012901168,96.20374303962987
0.85,-0.09132080268466365,0.007798011664228566,96.48107473344078
0.86,-0.10227230124416546,-0.07641119397677354,96.62732925853508
0.87,-0.09705896806408314,0.004924242425419234,96.67976012602172
0.88,-0.10283212225679175,-0.072947137002425,96.9170787893823
0.89,-0.09705896806408314,0.006073750120942967,97.28685438113018
0.9,-0.10111767040562374,-0.07524615239347246,97.76149170785133
0.91,-0.0941898853743734,0.0043339546898800195,98.1050518658559
0.92,-0.10745064561095866,-0.08045000479888395,98.2375087942432
0.93,-0.1005228605797083,-0.002578625371039725,98.07883643211258
0.94,-0.10339194326941804,-0.07813545552005914,97.68284540662138
0.95,-0.09478469520028883,0.004924242425419234,97.0357381210626
0.96,-0.10167749141825003,-0.07698594782453541,96.45485929969746
0.97,-0.09188062369728994,0.004924242425419234,95.80775201413867
0.98,-0.0941898853743734,-0.07698594782453541,95.01576996315627
0.99,-0.08785691016903847,0.0072232578164667,94.23758550888088
1.0,-0.09705896806408314,-0.08332377403769328,93.56426278957878
1.01,-0.08498782747932875,0.003184446994356287,92.75848314188937
1.02,-0.09072599285874822,-0.07583644012901168,92.15138888678092
1.03,-0.06829816354040745,0.017025141003973124,91.70296699380309
1.04,-0.035478656675191164,-0.06486951535820416,91.2021142333386
1.05,-0.026836419792772806,0.02221345952160727,90.56742478481613
1.06,0.011161431439236669,-0.04872980595753987,90.01276139719431
1.07,0.038802593937659766,0.04874533984531721,89.53812407047316
1.08,0.048564472845330706,-0.021032884050528843,89.063486743752
1.09,0.01805422765719787,0.04644632445426975,88.73234442278374
1.1,-0.02568178895423108,-0.06083070453609376,88.4025818614862
1.11,-0.058501295819447366,0.0037592008421181533,88.04660386644532
1.12,-0.0890115410075802,-0.08217426634216955,87.58438437676048
1.13,-0.09072599285874822,-0.0060426823453882715,87.20219094797629
1.14,-0.10685583578504322,-0.08967713413862852,86.87242838667875
1.15,-0.09821359890262485,-0.009506739319736817,86.56888125912452
1.16,-0.10167749141825003,-0.08274902018993142,86.31776499905693
1.17,-0.1120341801518364,-0.006617436193150138,86.05285114228234
1.18,-0.10801046662358495,-0.08159951249440768,85.76310161143512
1.19,0.11073959406013811,0.13815839789173082,85.44575688717387
1.2,0.8418658365500736,0.26792849638369387,85.18222279006997
1.21,1.292626718154105,0.5095891885358926,84.98353739748903
1.22,0.5471200734023316,0.17506691525070905,84.73380089709214
1.23,-0.07116724623011719,0.05394919225072871,84.4040383357946
1.24,-0.13621145013463432,-0.05679189371398334,84.11290904527667
1.25,-0.06829816354040745,0.010687314790815246,83.88800821895241
1.26,-0.07980948311253555,-0.07698594782453541,83.67690498933514
1.27,-0.07116724623011719,0.003184446994356287,83.43958632597456
1.28,-0.07403632891982694,-0.07698594782453541,83.18847006590697
1.29,-0.06427445001215598,0.0043339546898800195,83.01737986674004
1.3,-0.06252500934769883,-0.07179762930690126,82.83249207086611
1.31,-0.05619203414236392,0.01011256094305338,82.60759124454184
1.32,-0.05332295145265418,-0.06775881848479084,82.4102856116316
1.33,-0.050453868762944436,0.010687314790815246,82.2778286832443
1.34,-0.04121682205461064,-0.05968119684057002,82.0267124231767
1.35,-0.029145681469856254,0.024528008800432086,81.7507604890365
1.36,-0.026836419792772806,-0.04813951822200065,81.43341576477526
1.37,-0.014765279208018414,0.034904645835700375,81.2347303721943
1.38,-0.015325100220644705,-0.0412269381610809,81.11607104051402
1.39,0.007697538923611496,0.05220939681966576,81.2347303721943
1.4,0.014030514128946408,-0.018733868659481377,82.0142945861404
1.41,0.048564472845330706,0.0770170156000901,84.77243416787176
1.42,0.07333655265404407,0.01472612561292566,91.69054915676678
1.43,0.11707256926547302,0.12085364690776543,105.19425705391782
1.44,0.15335596864631448,0.07412771247350343,121.25879889989001
1.45,0.21091256650695497,0.18544355228597734,133.37584832798652
1.46,0.26213618916226056,0.13295454548631933,138.95973571531363
1.47,0.314549431469397,0.24715968842537991,138.70861945524604
1.48,0.3398813322907367,0.18544355228597734,134.2340588431626
1.49,0.37787918352274613,0.273116814901328,127.06620735387068
1.5,0.3813080872250822,0.18775810156480216,118.65795192061856
1.51,0.35541636539111626,0.23793255908563535,112.17584098766508
1.52,0.28862272082214196,0.11392553295906833,108.96927951295586
1.53,0.2120671973454967,0.1427719625616031,108.4808445895277
1.54,0.1222509136322662,0.008372765511990433,109.08793884463616
1.55,0.06067060224337424,0.04874533984531721,109.24661120676677
1.56,0.005388277246528047,-0.05564238601845961,108.24352592616712
1.57,-0.013015838543561257,0.009537807095291513,106.43466099787807
1.58,-0.030860133321024268,-0.07524615239347246,105.2991187888911
1.59,-0.023372527277147632,0.004924242425419234,105.1542440234675
1.6,-0.027431229618688237,-0.07352189085018686,105.98623910490022
1.61,-0.017634361897728153,0.010687314790815246,106.93551375834254
1.62,-0.024527158115689358,-0.07179762930690126,106.59333336000869
1.63,-0.016479731059186428,0.011262068638577113,104.67822693707564
1.64,-0.02225288525189505,-0.07237238315466313,103.24051736020516
1.65,-0.014170469382102981,0.006648503968704833,102.72586700303367
1.66,-0.021098254413353328,-0.07352189085018686,102.73828484006998
1.67,-0.017634361897728153,0.006648503968704833,102.13119058496153
1.68,-0.02512196794160479,-0.07524615239347246,100.28369238589283
1.69,-0.024527158115689358,0.006073750120942967,97.66904780991437
1.7,-0.026836419792772806,-0.07641119397677354,95.66287724871506
1.71,-0.02512196794160479,0.0037592008421181533,94.61977893766507
1.72,-0.026836419792772806,-0.07352189085018686,94.39625787101151
1.73,-0.026276598780146515,0.005498996273181101,94.71222283560205
1.74,-0.023967337103063067,-0.07063258772360018,95.14822689154357
1.75,-0.02512196794160479,0.003184446994356287,95.3193170907105
1.76,-0.03488384684927573,-0.08045000479888395,95.1882399219939
1.77,-0.03432402583664944,-0.0031533792188015914,95.17444232528689
1.78,-0.03316939499810772,-0.08506356946875623,95.4655716158048
1.79,-0.030300312308397977,-0.0002796099799922593,95.9926398100126
1.8,-0.04121682205461064,-0.08102475864664582,96.41484626924712
1.81,-0.02799105063131453,-0.004318420802102672,96.56110079434144
1.82,-0.03834773936490091,-0.08274902018993142,96.42864386595413
1.83,-0.032014764159565993,-0.0014291176755159922,95.95400653923298
1.84,-0.03488384684927573,-0.07871020936782101,95.21445535573723
1.85,-0.024527158115689358,0.0014601854510706877,94.63357653437208
1.86,-0.03316939499810772,-0.08851209255532744,94.14514161094392
1.87,-0.02281270626452134,0.0002951438677696071,93.61669365706543
1.88,-0.03488384684927573,-0.08851209255532744,92.93095310072701
1.89,-0.023372527277147632,-0.0014291176755159922,92.1127556160013
1.9,-0.03663328751373289,-0.08851209255532744,91.1883166366316
1.91,-0.029705502482482545,-0.005467928497626405,90.62123541197347
1.92,-0.036038477687817455,-0.0873625848598037,90.22524438648227
1.93,-0.030300312308397977,-0.008341697736435737,89.68299883589677
1.94,-0.04009718002935806,-0.08851209255532744,89.02347371330167
1.95,-0.024527158115689358,-0.002578625371039725,88.32393556025625
1.96,-0.026276598780146515,-0.08793733870756557,87.72925914218409
1.97,-0.021098254413353328,-0.008341697736435737,87.24082421875592
1.98,-0.02512196794160479,-0.0856383233165181,86.85863078997174
1.99,-0.014765279208018414,-0.0020038715232778585,86.52886822867418
2.0,0.00829234874952693,-0.07005783387583832,86.26395437189959
2.01,0.04167167662736951,0.008947519359752298,85.98800243775938
2.02,0.05374281721212389,-0.05795693529728443,85.64444227975483
2.03,0.11420348657576328,0.03432989198793851,85.22223582052031
2.04,0.12340554447080793,-0.029685259542511534,84.91868869296607
2.05,0.10787051137042837,0.06028701846388659,84.72000330038513
2.06,0.0693128391257926,-0.0412269381610809,84.48268463702455
2.07,0.024387202862532785,0.005498996273181101,84.04668058108302
2.08,-0.010146755853851518,-0.0856383233165181,83.73071561649249
2.09,-0.014765279208018414,-0.004318420802102672,83.49201719346121
2.1,-0.029145681469856254,-0.0856383233165181,83.25469853010063
2.11,-0.021098254413353328,-0.01238050855854615,82.9511514025464
2.12,-0.026276598780146515,-0.0873625848598037,82.71383273918582
2.13,-0.02512196794160479,-0.01699407322841843,82.39648801492459
2.14,-0.06196518833507254,-0.09255090337743785,82.06672545362703
2.15,0.05664688871512278,0.05913751076836285,81.7631783260728
2.16,0.4187461174444654,0.1485350349269991,81.59208812690588
2.17,1.2891628256384797,0.4605642387105832,81.41961816806824
2.18,1.0617705280723384,0.3175282000567652,81.14228647425733
2.19,0.31164535996639814,0.11738958993341689,80.87875237715343
2.2,-0.09247543352320538,-0.05736664756174521,80.7076621779865
2.21,-0.014170469382102981,0.019914444130559806,80.54898981585589
2.22,-0.004373601661142895,-0.06718406463702899,80.24544268830167
2.23,-0.0020993287973485896,0.003184446994356287,80.00812402494108
2.24,-0.012456017530934966,-0.07928496321558287,79.88946469326079
2.25,-0.004373601661142895,0.007798011664228566,79.71699473442317
2.26,0.0030790155694445983,-0.07063258772360018,79.49347366776959
2.27,0.00941199077477951,0.006073750120942967,79.26857284144533
2.28,0.0030790155694445983,-0.06660931078926711,79.1099004793147
2.29,0.019208858495739597,0.017025141003973124,79.00503874434143
2.3,0.020958299160196755,-0.05795693529728443,78.76634032131015
2.31,0.024982012688448216,0.028566819622542497,78.50280622420625
2.32,0.035898522434660886,-0.04641525667871505,78.27790539788198
2.33,0.04107686680145407,0.03664444126676332,78.08059976497174
2.34,0.05664688871512278,-0.03142505497357448,77.92192740284112
2.35,0.07389637366667036,0.054523946098490574,77.92192740284112
2.36,0.0860025030647139,-0.015844565532894695,78.39794448923297
2.37,0.10500142868071863,0.07816652329561384,80.44274832121191
2.38,0.1268694369864331,0.012411576334100845,86.09286417273266
2.39,0.1614033957028174,0.11220127141578273,98.31615509547315
2.4,0.19135381987832395,0.05797246918506177,115.1202481249411
2.41,0.24488670421071299,0.17160285827636051,129.2310502772006
2.42,0.29495569602747684,0.12661671927316145,136.58378956236643
2.43,0.35023802102432305,0.23678305139011163,137.65310330715974
2.44,0.393974037635752,0.17736593064175651,134.2602742769059
2.45,0.4314120678551352,0.2777303795712003,127.83197397110976
2.46,0.45041099347113994,0.2096764172186398,119.30505920617735
2.47,0.4573037896891011,0.278879887266724,111.74121669139426
2.48,0.4169966767800082,0.1658397859109645,107.42394868177071
2.49,0.3519524728754911,0.19813473860007044,106.03866997238687
2.5,0.26213618916226056,0.064325829285997,106.24977320200412
2.51,0.1896043792138668,0.0931567250007544,106.42086340117105
2.52,0.1205364617810982,-0.022197925633829923,105.61646351315235
2.53,0.08309843156171501,0.026252270343717684,103.78138315111997
2.54,0.05433762703803933,-0.06199574611939484,102.28986294709215
2.55,0.048564472845330706,0.009537807095291513,101.85385889115062
2.56,0.03764796309911804,-0.07583644012901168,102.3685092483221
2.57,0.04398093830445295,0.0072232578164667,103.31916366143511
2.58,0.039362414950286057,-0.06775881848479084,103.91384007950727
2.59,0.044540759317079244,0.009537807095291513,103.87382704905694
2.6,0.04625521116824726,-0.06718406463702899,103.4254051560791
2.61,0.04625521116824726,0.01472612561292566,102.87074176845728
2.62,0.04167167662736951,-0.06718406463702899,102.42094011580875
2.63,0.04338612847853752,0.01183682248633898,101.69518652901999
2.64,0.038802593937659766,-0.06486951535820416,100.13743786079853
2.65,0.0422314976399958,0.012986330181862711,98.01260796791892
2.66,0.03187480890640942,-0.06372000766268043,96.1112991416929
2.67,0.03187480890640942,0.013561084029624578,94.88469279443967
2.68,0.02323257202399106,-0.06718406463702899,94.46248633520516
2.69,0.027851095378157956,0.006648503968704833,94.54113263643512
2.7,0.021518120172823046,-0.07409664469794873,94.81846433024603
2.71,0.021518120172823046,0.002609693146594421,95.02956755986328
2.72,0.010566621613321234,-0.08159951249440768,95.08199842734992
2.73,0.022077941185449337,0.002034939298832554,95.06958059031362
2.74,0.01172125245186296,-0.08217426634216955,95.26688622322386
2.75,0.016339775806029855,-0.0002796099799922593,95.67667484542207
2.76,0.006542908085069772,-0.08159951249440768,96.00643740671961
2.77,0.016899596818656146,0.006648503968704833,96.00643740671961
2.78,0.012316062277778393,-0.07756070167229727,95.78153658039535
2.79,0.010566621613321234,0.002609693146594421,95.43935618206149
2.8,0.00885216976215322,-0.07641119397677354,95.00335212611996
2.81,0.00829234874952693,0.004924242425419234,94.43489114179114
2.82,0.0013645637182765832,-0.072947137002425,93.78916361590305
2.83,0.007697538923611496,0.002034939298832554,93.08962546285763
2.84,-0.0003498881328914316,-0.07237238315466313,92.42872058059183
2.85,0.001959373544192017,0.003184446994356287,91.67675156005976
2.86,-0.0003498881328914316,-0.07987525095112209,90.95099797327101
2.87,0.010006800600694945,0.0037592008421181533,90.37011915190588
2.88,0.007137717910985205,-0.07698594782453541,89.81545576428407
2.89,0.01172125245186296,0.004924242425419234,89.23457694291892
2.9,0.0048284562339017565,-0.06890832618031459,88.62748268781047
2.91,0.003673825395360032,0.007798011664228566,88.12525016767529
2.92,-0.00265914980997488,-0.07409664469794873,87.6105998105038
2.93,0.00829234874952693,0.0043339546898800195,87.04351858584567
2.94,-0.001504518971433156,-0.07179762930690126,86.52886822867418
2.95,0.0048284562339017565,0.0037592008421181533,86.18530807066963
2.96,-0.004968411487058329,-0.07352189085018686,85.92177397356573
2.97,0.0042336464079863224,0.012986330181862711,85.64444227975483
2.98,0.026696464539616233,-0.06601902305372791,85.22223582052031
2.99,0.059515971404832516,0.029141573470304362,84.76001633083546
3.0,0.0808241586979207,-0.045840502830953186,84.37644314238057
3.01,0.12109628279372449,0.045296816758746014,84.11290904527667
3.02,0.12973851967614283,-0.010081493167498684,83.86179278520908
3.03,0.09807364364946829,0.061436526159410317,83.63827171855552
3.04,0.06123042325600053,-0.0354638657956849,83.41337089223124
3.05,0.015744965980114423,0.015300879460687526,83.14983679512734
3.06,-0.015325100220644705,-0.061405458383855624,82.85870750460943
3.07,-0.030300312308397977,0.007798011664228566,82.64760427499218
3.08,-0.043526083731694094,-0.07987525095112209,82.43650104537491
3.09,-0.04527552439615125,0.003184446994356287,82.10673848407737
3.1,-0.055037403303822195,-0.07583644012901168,81.81560919355944
3.11,-0.047549797259945556,0.006073750120942967,81.53827749974853
3.12,-0.07519095975836866,-0.0712228754591394,81.31475643309497
3.13,0.055492257876581054,0.11162651756802087,81.01120930554073
3.14,0.5764756877519227,0.22985493744141453,80.76009304547316
3.15,1.2954958008438147,0.5044008700182585,80.5627874125629
3.16,0.7434423047677139,0.24139661605998392,80.28545571875199
3.17,0.1372261257200195,0.06836464010810742,80.02054186197739
3.18,-0.1442938660044264,-0.04469099513542945,79.84945166281047
3.19,-0.06829816354040745,0.03145612274912918,79.73079233113017
3.2,-0.06196518833507254,-0.055067632170697746,79.61213299944988
3.21,-0.050453868762944436,0.02106395182608354,79.47967607106258
3.22,-0.05619203414236392,-0.05910644299280816,79.228559810995
3.23,-0.050453868762944436,0.018764936435036073,78.93881028014778
3.24,-0.057941474806821075,-0.046990010526476916,78.66147858633687
3.25,-0.04583534540877754,0.02510276264819395,78.39794448923297
3.26,-0.046989976247319265,-0.045840502830953186,78.30550059129601
3.27,-0.04009718002935806,0.037793948962287056,78.27790539788198
3.28,-0.03432402583664944,-0.03776288118673236,78.185461499945
3.29,-0.030860133321024268,0.049335627580856425,78.0405867345214
3.3,-0.029705502482482545,-0.023347433329353656,77.72462176993086
3.31,-0.017634361897728153,0.05509869994625244,77.32863074443966
3.32,-0.010146755853851518,-0.011231000863022417,77.08993232140838
3.33,0.0013645637182765832,0.07123840934691675,77.08993232140838
3.34,0.014030514128946408,0.0037592008421181533,77.42107464237664
3.35,0.03474389159611916,0.1018091004927371,78.8325687855038
3.36,0.04398093830445295,0.038943456657810786,83.05739289719038
3.37,0.0808241586979207,0.13699335630842974,92.61360837646576
3.38,0.11248903472459526,0.08624414493983466,108.18971529900978
3.39,0.17120026342377748,0.1969852309045467,123.79203765529712
3.4,0.2074486739913298,0.15083405031804656,133.53452069011715
3.41,0.25006504857750617,0.2500489915519666,136.35888873604216
3.42,0.2892175306480574,0.1946706816257219,133.7056108892841
3.43,0.31626388332056504,0.28464295963212,127.54084468059185
3.44,0.33410817809802806,0.2160142434317977,118.9877144819161
3.45,0.33239372624686003,0.2800293949622477,110.7505492478309
3.46,0.2845990072938905,0.16641453975872636,105.5502350489587
3.47,0.21437645902258015,0.20044928787889527,103.58269775853901
3.48,0.1205364617810982,0.06721513241258367,103.45162058982241
3.49,0.04915928267124614,0.0983605774061659,103.5564823247957
3.5,-0.01703955207181272,-0.011231000863022417,102.7645002738133
3.51,-0.05276313044002789,0.04874533984531721,100.90320447803761
3.52,-0.07694040042282581,-0.04065218431331904,99.00327541148228
3.53,-0.0890115410075802,0.027992065774780632,98.05262099836926
3.54,-0.1005228605797083,-0.04237644585660464,98.09263402881959
3.55,-0.0936300643617471,0.03145612274912918,98.71214612096435
3.56,-0.09880840872854028,-0.03948714273001796,99.31924037607281
3.57,-0.09705896806408314,0.03432989198793851,99.41168427400979
3.58,-0.10398675309533348,-0.04007743046555717,99.05570627896891
3.59,-0.09765377788999856,0.04068325208887374,98.46102986089676
3.6,-0.10745064561095866,-0.04872980595753987,97.55038847823408
3.61,-0.10111767040562374,0.034904645835700375,96.46865689640447
3.62,-0.12470013056250623,-0.05275308289187293,95.13442929483656
3.63,-0.11493825165483529,0.029141573470304362,93.70913755500239
3.64,-0.12700939223958968,-0.06083070453609376,92.56117750897913
3.65,-0.12011659602162847,0.02221345952160727,91.96650109090697
3.66,-0.1344969982834663,-0.055067632170697746,91.90165238638403
3.67,-0.12931865391667313,0.021638705673845404,92.04652715180764
3.68,-0.1379608907990915,-0.06083070453609376,92.29764341187523
3.69,-0.13047328475521486,0.021638705673845404,92.58739294272245
3.7,-0.13736608097317604,-0.06083070453609376,92.99718156492065
3.71,-0.13505681929609262,0.015300879460687526,93.36695715666853
3.72,-0.14716294869413613,-0.061405458383855624,93.76294818215973
3.73,-0.1402351636628858,0.017599894851734993,94.15893920765093
3.74,-0.14313923516588467,-0.05564238601845961,94.31623181011085
3.75,-0.13736608097317604,0.019914444130559806,94.19757247843056
3.76,-0.1465681388682207,-0.05853168914504629,93.88160751384002
3.77,-0.14887740054530416,0.01472612561292566,93.32694412621821
3.78,-0.1609835299433477,-0.06199574611939484,92.74606530485306
3.79,-0.15811444725363794,0.008947519359752298,92.24383278471788
3.8,-0.1626979817945157,-0.05910644299280816,91.63673852960943
3.81,-0.15003203138384588,0.023953254952670217,90.87097191237035
3.82,-0.1569598164150962,-0.05910644299280816,90.18523135603193
3.83,-0.14544849684296812,0.02510276264819395,89.55192166718017
3.84,-0.1626979817945157,-0.056217139866221476,88.95724524910801
3.85,-0.14600831785559443,0.030291081165828095,88.37636642774288
3.86,-0.11952178619571303,-0.04872980595753987,87.88793150431471
3.87,-0.11147435913921011,0.036069687419001455,87.33326811669289
3.88,-0.07347650790720064,-0.03142505497357448,86.63372996364747
3.89,-0.03950237020344263,0.05913751076836285,86.05285114228234
3.9,-0.02855087164394082,0.0002951438677696071,85.59201141226818
3.91,-0.06654872287595029,0.06778988626034554,85.22223582052031
3.92,-0.11318881099037813,-0.04526574898319132,84.91868869296607
3.93,-0.15521037575063906,0.022803747257146484,84.61514156541185
3.94,-0.1857206209387719,-0.06601902305372791,84.21915053992065
3.95,-0.19264840597002225,0.012411576334100845,83.8755903819161
3.96,-0.19954120218798346,-0.06718406463702899,83.58446109139817
3.97,-0.2024102848776932,0.01011256094305338,83.37335786178092
3.98,-0.19320822698264853,-0.06948308002807645,83.16225463216365
3.99,-0.19607730967235829,0.011262068638577113,82.97736683628972
4.0,-0.23292053006582603,-0.07352189085018686,82.72763033589283
4.01,-0.09880840872854028,0.0983605774061659,82.4227034486679
4.02,0.41930593845709163,0.21140067876192542,82.159169351564
4.03,1.1659672140474067,0.47555444041572376,82.08052305033404
4.04,0.6392106299793564,0.2287054297458908,81.92185068820342
4.05,0.05374281721212389,0.0556734537940143,81.65831659109952
4.06,-0.27956061818025385,-0.055067632170697746,81.39340273432492
4.07,-0.19320822698264853,0.02971632731806623,81.16988166767136
4.08,-0.17651856304372726,-0.061405458383855624,80.91876540760377
4.09,-0.17018558783839233,0.019914444130559806,80.60142068334252
4.1,-0.1690309569998506,-0.05679189371398334,80.45654591791892
4.11,-0.16213816078188942,0.02048919797832167,80.35030442327493
4.12,-0.15811444725363794,-0.05045406750082546,80.19301182081502
4.13,-0.13852071181171777,0.03721919511452519,80.08677032617105
4.14,-0.14831757953267785,-0.04756476437423879,79.84945166281047
4.15,-0.13218773660638286,0.037793948962287056,79.51968910151291
4.16,-0.1333423674449246,-0.04813951822200065,79.26857284144533
4.17,-0.11434344182891985,0.045296816758746014,79.06988744886438
4.18,-0.11493825165483529,-0.03199980882133635,78.89879724969745
4.19,-0.10801046662358495,0.04759583214979348,78.8325687855038
4.2,-0.08554764849195504,-0.020458130202766975,78.72770705053053
4.21,-0.06654872287595029,0.06662484467704446,78.54281925465658
4.22,-0.05216832061411245,-0.0060426823453882715,78.7139094538235
4.23,-0.02855087164394082,0.08509463724431093,79.94189556074744
4.24,-0.005528232499684619,0.027992065774780632,83.7569310502358
4.25,0.028410916390784247,0.12604196542539958,92.32385884561855
4.26,0.05892116157891709,0.06662484467704446,106.79063899291893
4.27,0.11476330758838957,0.17217761212412236,122.06319878790872
4.28,0.1660219190569843,0.12489245772987584,132.20167284821994
4.29,0.21553108986112188,0.22581612661930411,135.69936361344708
4.3,0.25006504857750617,0.16409999047990154,133.9705247460587
4.31,0.29439587501485054,0.26676345480039276,128.7026023233221
4.32,0.3070618254255204,0.19179691238691257,120.91523874188546
4.33,0.30475256374843696,0.25638681776512445,112.92918976786785
4.34,0.24835059672633816,0.13526909476514412,107.55640561015801
4.35,0.18040232131882214,0.16295048278437782,105.2991187888911
4.36,0.08771695491588191,0.02971632731806623,104.95555863088654
4.37,0.022672751011364768,0.07182869708245596,105.00936925804389
4.38,-0.03432402583664944,-0.041801692008842775,104.28223591158444
4.39,-0.06081055749653082,0.017599894851734993,102.61962550838969
4.4,-0.08327337562816073,-0.07467139854571059,100.77212730932101
4.41,-0.08327337562816073,0.005498996273181101,99.76904202872134
4.42,-0.0890115410075802,-0.07179762930690126,99.59657206988372
4.43,-0.07519095975836866,0.006073750120942967,100.04499396286155
4.44,-0.07634559059691037,-0.0712228754591394,100.58723951344706
4.45,-0.07232187706865892,0.01011256094305338,100.86457120725797
4.46,-0.07806004244807839,-0.072947137002425,100.62587278422669
4.47,-0.07172706724274348,0.009537807095291513,99.8338907332443
4.48,-0.08036930412516184,-0.07237238315466313,98.72594371767137
4.49,-0.0826785658022453,0.0008854316033088213,97.40551371281047
4.5,-0.08498782747932875,-0.08217426634216955,95.9802219729763
4.51,-0.06945279437894918,0.0002951438677696071,94.6597919681154
4.52,-0.09132080268466365,-0.08389852788545515,93.78916361590305
4.53,-0.07463113874574237,-0.0008543638277541258,93.55046519287177
4.54,-0.07288169808128521,-0.08506356946875623,93.70913755500239
4.55,-0.06945279437894918,-0.007766943888673871,93.97405141177698
4.56,-0.07519095975836866,-0.08621307716427996,94.14514161094392
4.57,-0.07403632891982694,-0.005467928497626405,94.22378791217388
4.58,-0.07634559059691037,-0.08448881562099436,94.43489114179114
4.59,-0.07403632891982694,-0.011805754710784284,94.80466673353901
4.6,-0.07694040042282581,-0.08389852788545515,95.29310165696718
4.61,-0.07116724623011719,-0.007192190040912004,95.68909268245838
4.62,-0.06885798455303374,-0.08102475864664582,95.75532114665202
4.63,-0.057941474806821075,-0.008931985471974952,95.55801551374178
4.64,-0.06311981917361427,-0.08274902018993142,95.14822689154357
4.65,-0.06196518833507254,-0.005467928497626405,94.61977893766507
4.66,-0.065988901863324,-0.08274902018993142,93.96025381506998
4.67,-0.05563221312973763,-0.0060426823453882715,93.19448719783091
4.68,-0.05734666498090564,-0.0856383233165181,92.46873361104215
4.69,-0.04814460708586099,-0.009506739319736817,91.87405719297001
4.7,-0.055037403303822195,-0.08793733870756557,91.30697596831189
4.71,-0.046430155234692974,-0.011231000863022417,90.68608411649642
4.72,-0.04121682205461064,-0.08159951249440768,90.10520529513128
4.73,-0.010146755853851518,0.0002951438677696071,89.68299883589677
4.74,0.012316062277778393,-0.06775881848479084,89.15593064168897
4.75,0.04338612847853752,0.021638705673845404,88.50882335613018
4.76,0.07505100450521208,-0.04756476437423879,87.84929823353508
4.77,0.09807364364946829,0.04759583214979348,87.51815591256684
4.78,0.06413449475899942,-0.0354638657956849,87.17597551423297
4.79,0.023827381849906494,0.021638705673845404,86.73997145829145
4.8,-0.024527158115689358,-0.0856383233165181,86.35639826983656
4.81,-0.04181163188052608,-0.01699407322841843,85.93419181060204
4.82,-0.06081055749653082,-0.09716446804731012,85.57821381556117
4.83,-0.06542908085069771,-0.026221202568162988,85.31467971845727
4.84,-0.07403632891982694,-0.1017780327171824,85.07598129542599
4.85,-0.07001261539157547,-0.026811490303702203,84.8000293612858
4.86,-0.08152393496370357,-0.1017780327171824,84.52269766747489
4.87,-0.08845171999495391,-0.029685259542511534,84.19155534650663
4.88,0.052588186373582174,0.0043339546898800195,83.82315951442945
4.89,0.5931653516908441,0.2754158302923755,83.58446109139817
4.9,1.3035782167136067,0.40807523191092515,83.43958632597456
4.91,0.758382528042178,0.3175282000567652,83.17605222887067
4.92,0.08771695491588191,-0.01988337635500511,82.74004817292914
4.93,-0.14082997348880122,0.01183682248633898,82.43650104537491
4.94,-0.07347650790720064,-0.07641119397677354,82.2916262799513
4.95,-0.06945279437894918,-0.005467928497626405,82.159169351564
4.96,-0.07694040042282581,-0.0873625848598037,82.05430761659072
4.97,-0.06714353270186572,-0.008341697736435737,81.80319135652313
4.98,-0.06770335371449202,-0.08045000479888395,81.44721336148227
4.99,-0.057941474806821075,0.0002951438677696071,81.1036532034777
5.0,-0.06137037850915711,-0.07698594782453541,80.91876540760377
5.01,-0.05619203414236392,0.0037592008421181533,80.77389064218016
5.02,-0.057941474806821075,-0.07005783387583832,80.62763611708586
5.03,-0.050453868762944436,0.010687314790815246,80.47034351462594
5.04,-0.047549797259945556,-0.06314525381491858,80.23164509159466
5.05,-0.03260957398548143,0.01645038715621126,79.98190859119777
5.06,-0.02225288525189505,-0.05449287832293588,79.73079233113017
5.07,-0.0038137806485166047,0.02971632731806623,79.58591756570657
5.08,0.0030790155694445983,-0.038912388882256094,79.75700776487349
5.09,0.02900572621669968,0.0499103814286183,80.81252391295979
5.1,0.04338612847853752,-0.01526981168513283,83.86179278520908
5.11,0.06756339846133544,0.07931603099113757,91.43943289669919
5.12,0.10556124969334492,0.024528008800432086,105.64267894689567
5.13,0.1435591009253544,0.1312302839430337,121.95833705293543
5.14,0.1844260348470736,0.08278008796548611,133.53452069011715
5.15,0.24488670421071299,0.19813473860007044,138.51131382233578
5.16,0.2851938171198059,0.14334671640936497,137.96906827175027
5.17,0.3317989164209446,0.2431208776032695,133.4682922259235
5.18,0.35713081724228424,0.17910572607281947,126.47291069546924
5.19,0.37843900453537244,0.25985087473947305,118.27437873216367
5.2,0.35713081724228424,0.16237572893661595,111.9385223243045
5.21,0.3099309081152301,0.20102404172665714,108.7319608495953
5.22,0.22186406506645678,0.06662484467704446,107.91238360519887
5.23,0.14471373176389613,0.09547127427957922,108.01862509984285
5.24,0.0629798639204577,-0.025646448720401123,107.79372427351858
5.25,0.011161431439236669,0.019339690282797938,106.71199269168898
5.26,-0.023372527277147632,-0.07237238315466313,105.10181315598086
5.27,-0.03432402583664944,-0.005467928497626405,104.0973481157105
5.28,-0.04237145289315237,-0.08793733870756557,104.12494330912452
5.29,-0.04237145289315237,-0.008341697736435737,104.96935622759356
5.3,-0.04870442809848728,-0.08851209255532744,105.8275667427696
5.31,-0.04468071457023582,-0.007192190040912004,106.06488540613019
5.32,-0.046430155234692974,-0.08678783101204184,105.6951098143823
5.33,-0.03432402583664944,-0.0060426823453882715,104.94314079385025
5.34,-0.04468071457023582,-0.08159951249440768,104.18979201364748
5.35,-0.03950237020344263,-0.005467928497626405,103.4254051560791
5.36,-0.04121682205461064,-0.08217426634216955,102.10497515121821
5.37,-0.04237145289315237,-0.003728133066563458,100.16503305421254
5.38,-0.05276313044002789,-0.08678783101204184,98.1188494625629
5.39,-0.04870442809848728,-0.0060426823453882715,96.57351863137774
5.4,-0.06367964018624056,-0.0873625848598037,95.74290330961573
5.41,-0.06945279437894918,-0.011231000863022417,95.49178704954814
5.42,-0.06311981917361427,-0.09082664183415225,95.68909268245838
5.43,-0.06196518833507254,-0.012955262406308017,95.96642437626929
5.44,-0.07288169808128521,-0.09486545265626266,96.05886827420626
5.45,-0.06252500934769883,-0.01930862250724324,96.1112991416929
5.46,-0.06654872287595029,-0.09544020650402453,96.20374303962987
5.47,-0.06770335371449202,-0.01699407322841843,96.44244146266115
5.48,-0.07634559059691037,-0.09716446804731012,96.9032811926753
5.49,-0.07172706724274348,-0.01699407322841843,97.39171611610347
5.5,-0.06770335371449202,-0.09544020650402453,97.52417304449077
5.51,-0.05965592665798909,-0.01930862250724324,97.28685438113018
5.52,-0.07116724623011719,-0.09716446804731012,96.7722040239587
5.53,-0.06081055749653082,-0.01988337635500511,96.20374303962987
5.54,-0.0706074252174909,-0.09890426347837307,95.5966487845214
5.55,-0.06252500934769883,-0.01699407322841843,94.97713669237665
5.56,-0.07172706724274348,-0.09947901732613494,94.2638009426242
5.57,-0.06714353270186572,-0.01988337635500511,93.56426278957878
5.58,-0.07578576958428408,-0.09890426347837307,92.90473766698368
5.59,-0.06829816354040745,-0.01699407322841843,92.29764341187523
5.6,-0.07806004244807839,-0.09486545265626266,91.5981052588298
5.61,-0.06483427102478227,-0.01526981168513283,90.95099797327101
5.62,-0.07172706724274348,-0.08851209255532744,90.33010612145554
5.63,-0.06483427102478227,-0.011231000863022417,89.69679643260378
5.64,-0.05276313044002789,-0.08045000479888395,89.08970217749531
5.65,-0.021098254413353328,-0.0020038715232778585,88.56125422361681
5.66,-0.01361064836947669,-0.0712228754591394,88.1390477643823
5.67,0.035898522434660886,0.01587563330844939,87.79548760637775
5.68,0.055492257876581054,-0.04410070739989024,87.51815591256684
5.69,0.06756339846133544,0.0412580059366356,87.22840638171961
5.7,0.026696464539616233,-0.04930455980530173,86.89864382042207
5.71,-0.008992125015309792,-0.004893174649864539,86.51507063196718
5.72,-0.06137037850915711,-0.09832950963061121,86.15909263692632
5.73,-0.08096411395107728,-0.0285357518469878,85.81553247892175
5.74,-0.0941898853743734,-0.10640713127483203,85.57821381556117
5.75,-0.0941898853743734,-0.0302600133902734,85.3408951522006
5.76,-0.0941898853743734,-0.10813139281811764,84.99733499419604
5.77,-0.09132080268466365,-0.0285357518469878,84.69378786664181
5.78,-0.13103310576784113,-0.1110206959447043,84.50890007076787
5.79,-0.08614245831787046,0.0002951438677696071,84.4040383357946
5.8,0.17466415593940265,0.08624414493983466,84.08669361153335
5.81,1.0295458310330374,0.38615691625708753,83.70312042307846
5.82,1.1654073930347804,0.3948092917490702,83.37335786178092
5.83,0.3887956932689588,0.17736593064175651,83.09602616797001
5.84,-0.15234129306092933,-0.05910644299280816,82.79247904041578
5.85,-0.10972491847475295,0.01011256094305338,82.64760427499218
5.86,-0.08383319664078702,-0.08159951249440768,82.5551603770552
5.87,-0.08439301765341331,-0.007766943888673871,82.35785474414494
5.88,-0.08554764849195504,-0.08621307716427996,81.97428155569007
5.89,-0.08152393496370357,-0.008931985471974952,81.68453202484284
5.9,-0.082118744789619,-0.08045000479888395,81.55207509645554
5.91,-0.06945279437894918,-0.0002796099799922593,81.43341576477526
5.92,-0.07578576958428408,-0.07237238315466313,81.26232556560832
5.93,-0.06427445001215598,0.002609693146594421,81.03742473928406
5.94,-0.06427445001215598,-0.06775881848479084,80.8263215096668
5.95,-0.05160849960148616,0.012411576334100845,80.60142068334252
5.96,-0.04985905893702901,-0.05853168914504629,80.32408898953162
5.97,-0.03432402583664944,0.025677516495955816,80.07435248913474
5.98,-0.032014764159565993,-0.04237644585660464,79.92809796404042
5.99,-0.010706576866477807,0.04240751363215933,79.82323622906715
6.0,-0.005528232499684619,-0.0285357518469878,80.23164509159466
6.01,0.011161431439236669,0.058562756920600985,82.00049698943339
6.02,0.03764796309911804,0.002609693146594421,87.28083724920626
6.03,0.07218192181550234,0.1000848389494515,99.01569324851859
6.04,0.1038467978421769,0.0499103814286183,115.37136438500869
6.05,0.1545105994848562,0.15833691811450554,129.4821665372682
6.06,0.2011156987859949,0.11507504065459206,137.24331468496155
6.07,0.25870728545992455,0.21890354655838437,138.81486094989003
6.08,0.296705136691934,0.1698785967330749,135.87045381261402
6.09,0.33410817809802806,0.2661887009526309,130.023032328183
6.1,0.35713081724228424,0.19641047705678485,122.07699638461573
6.11,0.3652132331120763,0.26792849638369387,114.75047253319322
6.12,0.3266205720541514,0.16352523663213966,110.30212735485307
6.13,0.27137323587059436,0.18775810156480216,108.63951695165832
6.14,0.18558066568561532,0.05797246918506177,108.55949089075766
6.15,0.11073959406013811,0.08681889878759652,108.55949089075766
6.16,0.03649333226057632,-0.03314931651686008,107.74129340603194
6.17,0.0042336464079863224,0.025677516495955816,106.14353170736014
6.18,-0.023372527277147632,-0.06948308002807645,104.87691232965659
6.19,-0.026276598780146515,-0.0002796099799922593,104.4947189008724
6.2,-0.03894254919081634,-0.08217426634216955,104.98177406462987
6.21,-0.04181163188052608,-0.0002796099799922593,105.90621304399957
6.22,-0.04468071457023582,-0.07524615239347246,106.55332032955835
6.23,-0.03663328751373289,0.006648503968704833,106.65818206453163
6.24,-0.04065700104198435,-0.07352189085018686,106.36843253368441
6.25,-0.033764204824023154,0.0037592008421181533,105.77513587528297
6.26,-0.04181163188052608,-0.07409664469794873,104.70582213048966
6.27,-0.03488384684927573,0.0043339546898800195,103.27915063098479
6.28,-0.04009718002935806,-0.07179762930690126,101.4316524319161
6.29,-0.04065700104198435,0.006648503968704833,99.39926643697348
6.3,-0.05276313044002789,-0.07524615239347246,97.73527627410802
6.31,-0.05216832061411245,-0.007192190040912004,96.6535446922784
6.32,-0.05332295145265418,-0.08102475864664582,96.2437560700802
6.33,-0.05101368977557073,-0.0031533792188015914,96.28376910053052
6.34,-0.06081055749653082,-0.08332377403769328,96.61353166182808
6.35,-0.05619203414236392,-0.004893174649864539,96.9032811926753
6.36,-0.06252500934769883,-0.08389852788545515,97.08816898854923
6.37,-0.06196518833507254,-0.0014291176755159922,97.20820807990022
6.38,-0.07865485227399382,-0.08159951249440768,97.53797064119777
6.39,-0.065988901863324,-0.002578625371039725,98.02640556462593
6.4,-0.07865485227399382,-0.08448881562099436,98.3685859629598
6.41,-0.07001261539157547,-0.004318420802102672,98.39618115637381
6.42,-0.08439301765341331,-0.08332377403769328,98.15748273334253
6.43,-0.07865485227399382,-0.007766943888673871,97.86773320249532
6.44,-0.07463113874574237,-0.08274902018993142,97.37929827906716
6.45,-0.06770335371449202,-0.004893174649864539,96.66596252931471
6.46,-0.08096411395107728,-0.08389852788545515,95.88777807503934
6.47,-0.07806004244807839,-0.014695057837370963,95.20065775903021
6.48,-0.07806004244807839,-0.09025188798639038,94.6597919681154
6.49,-0.06945279437894918,-0.010081493167498684,94.00026684552031
6.5,-0.08152393496370357,-0.08678783101204184,93.24691806531754
6.51,-0.06829816354040745,-0.01238050855854615,92.46873361104215
6.52,-0.07347650790720064,-0.08506356946875623,91.7291824275464
6.53,-0.06770335371449202,-0.008341697736435737,91.0696573049513
6.54,-0.0706074252174909,-0.08332377403769328,90.50119632062248
6.55,-0.06885798455303374,-0.008341697736435737,89.986545963451
6.56,-0.07347650790720064,-0.08506356946875623,89.49811104002282
6.57,-0.06714353270186572,-0.005467928497626405,89.00967611659466
6.58,-0.06945279437894918,-0.08159951249440768,88.45639248864354
6.59,-0.04929923792440272,0.0043339546898800195,88.16526319812561
6.6,-0.017634361897728153,-0.0712228754591394,87.94036237180136
6.61,0.007697538923611496,0.019914444130559806,87.63681524424712
6.62,0.04107686680145407,-0.051028821348587335,87.26841941216995
6.63,0.06987266013841889,0.04759583214979348,86.84483319326473
6.64,0.07043248115104518,-0.020458130202766975,86.52886822867418
6.65,0.039362414950286057,0.04183275978439747,86.15909263692632
6.66,-0.013015838543561257,-0.07467139854571059,85.86796334640839
6.67,-0.04929923792440272,-0.005467928497626405,85.64444227975483
6.68,-0.07519095975836866,-0.0856383233165181,85.41954145343055
6.69,-0.07980948311253555,-0.014695057837370963,85.11599432587633
6.7,-0.09188062369728994,-0.09197614952967598,84.83866263206542
6.71,-0.09247543352320538,-0.01065624701526055,84.60134396870484
6.72,-0.10167749141825003,-0.08678783101204184,84.2839992444436
6.73,-0.13047328475521486,-0.011231000863022417,84.0080473103034
6.74,-0.10111767040562374,-0.05679189371398334,83.76934888727212
6.75,0.17868786946765414,0.18314453689492988,83.62447412184851
6.76,1.0347241753998306,0.3319436479141439,83.36094002474461
6.77,1.1562053351397357,0.47671948199902486,82.96494899925341
6.78,0.37497511201974726,0.1000848389494515,82.64760427499218
6.79,-0.15521037575063906,0.03145612274912918,82.4227034486679
6.8,-0.1281640230781314,-0.06372000766268043,82.19918238201433
6.81,-0.08554764849195504,0.002034939298832554,82.0267124231767
6.82,-0.10454657410795977,-0.08045000479888395,81.84320438697347
6.83,-0.09649914705145685,-0.007192190040912004,81.56587269316256
6.84,-0.09880840872854028,-0.08217426634216955,81.2347303721943
6.85,-0.08614245831787046,0.0072232578164667,81.01120930554073
6.86,-0.09247543352320538,-0.07237238315466313,80.8263215096668
6.87,-0.08036930412516184,0.013561084029624578,80.6938645812795
6.88,-0.08729708915641218,-0.06314525381491858,80.50897678540557
6.89,-0.07980948311253555,0.01587563330844939,80.25786052533797
6.9,-0.08785691016903847,-0.06083070453609376,79.91568012700411
6.91,-0.07463113874574237,0.023378501104908352,79.7694256019098
6.92,-0.07403632891982694,-0.0516035751963492,79.66456386693652
6.93,-0.057941474806821075,0.03145612274912918,79.53210693854922
6.94,-0.05563221312973763,-0.03199980882133635,79.5058915048059
6.95,-0.03488384684927573,0.053358904515189494,79.71699473442317
6.96,-0.02799105063131453,-0.01238050855854615,81.02362714257704
6.97,0.0008047427056502928,0.08450434950877171,85.23465365755662
6.98,0.01980366832165503,0.024528008800432086,95.41176098864747
6.99,0.057801519553664506,0.1214284007555273,111.43766956384003
7.0,0.10038290532655172,0.07816652329561384,126.59157002714953
7.01,0.1481776242795213,0.1860183061337392,135.62071731221712
7.02,0.1936630815554074,0.13526909476514412,138.32642602646186
7.03,0.24201762152100326,0.23965682062892096,136.08155704223125
7.04,0.264445450839344,0.17910572607281947,130.45903638412454
7.05,0.28690826897097393,0.26676345480039276,122.47298741010692
7.06,0.2932412441763088,0.18775810156480216,114.460723002346
7.07,0.27539694939884585,0.24254612375550763,109.08793884463616
7.08,0.212627018358123,0.11853909762894062,106.90929832459922
7.09,0.13491686404293604,0.1485350349269991,106.79063899291893
7.1,0.04282630746591123,0.01183682248633898,107.1341991509235
7.11,-0.01703955207181272,0.05048513527638016,106.67197966123864
7.12,-0.07001261539157547,-0.052178329044111064,105.10181315598086
7.13,-0.09303525453583167,0.012986330181862711,103.4378229931154
7.14,-0.11031972830066838,-0.07813545552005914,102.75208243677699
7.15,-0.11147435913921011,0.0008854316033088213,103.09426283511085
7.16,-0.1235454997239645,-0.07871020936782101,104.0973481157105
7.17,-0.1172125245186296,-0.0002796099799922593,104.86311473294958
7.18,-0.12123623804688105,-0.07756070167229727,104.99557166133688
7.19,-0.12183104787279649,-0.0008543638277541258,104.59958063584568
7.2,-0.12931865391667313,-0.08102475864664582,103.90004248280026
7.21,-0.12414030954987994,0.002609693146594421,102.94938806968725
7.22,-0.12756921325221596,-0.07237238315466313,101.61654022779004
7.23,-0.11952178619571303,0.006648503968704833,99.821472896208
7.24,-0.12872384409075768,-0.08217426634216955,97.90774623294566
7.25,-0.1333423674449246,-0.0020038715232778585,96.2575536667872
7.26,-0.1442938660044264,-0.08159951249440768,95.24067078948055
7.27,-0.14254442533996925,-0.0014291176755159922,94.91090822818299
7.28,-0.15234129306092933,-0.08678783101204184,95.01576996315627
7.29,-0.14544849684296812,-0.004893174649864539,95.24067078948055
7.3,-0.15923408927889052,-0.08851209255532744,95.53042032032776
7.31,-0.15465055473801279,-0.0060426823453882715,95.847765044589
7.32,-0.16500724347159915,-0.08274902018993142,96.2437560700802
7.33,-0.1609835299433477,-0.006617436193150138,96.57351863137774
7.34,-0.1690309569998506,-0.08332377403769328,96.98330725357596
7.35,-0.1673165051486826,-0.007766943888673871,97.3130698148735
7.36,-0.1742093013666438,-0.07928496321558287,97.40551371281047
7.37,-0.17074540885101863,-0.007192190040912004,97.23442351364355
7.38,-0.1742093013666438,-0.08332377403769328,96.75840642725169
7.39,-0.17823301489489526,-0.01354555014184723,96.16510976885024
7.4,-0.18516079992614562,-0.08967713413862852,95.4517740190978
7.41,-0.17480411119255923,-0.011805754710784284,94.72602043230906
7.42,-0.18516079992614562,-0.08274902018993142,94.07891314675027
7.43,-0.177673193882269,-0.007192190040912004,93.41938802415517
7.44,-0.18747006160322907,-0.08621307716427996,92.67983684065942
7.45,-0.1799824555593524,-0.004893174649864539,92.08654018225796
7.46,-0.18516079992614562,-0.08851209255532744,91.55809222837946
7.47,-0.18285153824906217,-0.009506739319736817,90.91098494282069
7.48,-0.18229171723643586,-0.08217426634216955,90.30389068771223
7.49,-0.17651856304372726,0.0002951438677696071,89.65678340215344
7.5,-0.16213816078188942,-0.07179762930690126,89.00967611659466
7.51,-0.12470013056250623,0.004924242425419234,88.42879729522951
7.52,-0.1327825464322983,-0.06486951535820416,87.99417299895869
7.53,-0.08439301765341331,0.02221345952160727,87.6105998105038
7.54,-0.05388277246528047,-0.0412269381610809,87.25462181546294
7.55,-0.04412089355760953,0.04874533984531721,86.91106165745838
7.56,-0.08960635083349563,-0.041801692008842775,86.56888125912452
7.57,-0.12414030954987994,0.004924242425419234,86.29154956531362
7.58,-0.17480411119255923,-0.08389852788545515,86.00042027479569
7.59,-0.1840061690876039,-0.007766943888673871,85.71067074394847
7.6,-0.20989789092156982,-0.09082664183415225,85.40712361639424
7.61,-0.2070288082318601,-0.016419319380656563,85.06356345838968
7.62,-0.20818343907040182,-0.09544020650402453,84.89109349955206
7.63,-0.21451641427573673,-0.02392218717711552,84.72000330038513
7.64,-0.22256384133223966,-0.1000537711738968,84.46888704031754
7.65,-0.2410029459356181,-0.027960997999225936,84.17913750947032
7.66,-0.07403632891982694,0.03721919511452519,83.91560341236642
7.67,0.6202466931766408,0.31637869236124144,83.67690498933514
7.68,1.152146632798195,0.38558216240932564,83.37335786178092
7.69,0.44638727994288846,0.2056376063965294,83.04359530048336
7.7,-0.12931865391667313,-0.05910644299280816,82.74004817292914
7.71,-0.26633484675695773,-0.0008543638277541258,82.58137581079852
7.72,-0.19436285782119025,-0.07467139854571059,82.35785474414494
7.73,-0.18802988261585535,-0.01238050855854615,82.09294088737035
7.74,-0.1903391442929388,-0.08332377403769328,81.86941982071679
7.75,-0.18054227657197872,-0.004318420802102672,81.6307213976855
7.76,-0.18169690741052044,-0.08448881562099436,81.3671873005816
7.77,-0.16616187431014087,-0.0031533792188015914,81.19609710141468
7.78,-0.1678763261613089,-0.07583644012901168,81.06364017302738
7.79,-0.16616187431014087,0.0014601854510706877,80.86633454011712
7.8,-0.16616187431014087,-0.06601902305372791,80.50897678540557
7.81,-0.14772276970676243,0.011262068638577113,80.23164509159466
7.82,-0.15349592389947106,-0.06314525381491858,80.11298575991437
7.83,-0.13565162912200804,0.02510276264819395,79.94189556074744
7.84,-0.12644957122696338,-0.04237644585660464,79.75700776487349
7.85,-0.10916509746212666,0.0412580059366356,79.58591756570657
7.86,-0.10454657410795977,-0.025646448720401123,79.49347366776959
7.87,-0.08383319664078702,0.057397715337299905,79.78322319861681
7.88,-0.06770335371449202,0.0037592008421181533,81.28854099935165
7.89,-0.03260957398548143,0.09547127427957922,85.86796334640839
7.9,-0.011861207705019531,0.0412580059366356,96.16510976885024
7.91,0.03187480890640942,0.15140880416580843,111.51631586506998
7.92,0.07158711198958691,0.10238385434049896,125.69334648152315
7.93,0.13551167386885146,0.21658899727955958,133.94292955264464
7.94,0.16255802654135912,0.15429810729239513,136.0167083377083
7.95,0.20632903196607721,0.2534975146385378,133.37584832798652
7.96,0.22991149212295972,0.18890760926032588,127.6208707414925
7.97,0.2281970402717917,0.2604256285872349,119.52858027283091
7.98,0.22588777859470824,0.16526503206320262,111.85987602307455
7.99,0.17693842880319696,0.20274830326994273,107.02795765627951
8.0,0.10325198801626147,0.08450434950877171,104.96935622759356
8.01,0.023827381849906494,0.10527315746708564,104.63959366629601
8.02,-0.05388277246528047,-0.016419319380656563,104.57336520210237
8.03,-0.09593932603883056,0.038943456657810786,103.80759858486329
8.04,-0.12931865391667313,-0.051028821348587335,102.26364751334883
8.05,-0.1506268412097613,0.013561084029624578,100.758329712614
8.06,-0.16038872011743224,-0.06314525381491858,99.99256309537492
8.07,-0.14947221037121958,0.019339690282797938,100.0850069933119
8.08,-0.16385261263305742,-0.053343370627412144,100.66588581467703
8.09,-0.15349592389947106,0.023378501104908352,101.26056223274917
8.1,-0.1529011140735556,-0.05910644299280816,101.40543699817277
8.11,-0.14716294869413613,0.021638705673845404,100.91700207474462
8.12,-0.1563650065891808,-0.052178329044111064,100.03257612582524
8.13,-0.14831757953267785,0.019339690282797938,99.0294908452256
8.14,-0.15982889910480597,-0.05968119684057002,97.66904780991437
8.15,-0.1529011140735556,0.019339690282797938,96.15131217214322
8.16,-0.15751963742772251,-0.06025595068833189,94.85847736069636
8.17,-0.14887740054530416,0.019914444130559806,94.03890011629994
8.18,-0.16038872011743224,-0.06660931078926711,93.80158145293936
8.19,-0.15751963742772251,0.009537807095291513,94.03890011629994
8.2,-0.15751963742772251,-0.06372000766268043,94.55493023314213
8.21,-0.1529011140735556,0.009537807095291513,95.09579602405694
8.22,-0.15982889910480597,-0.06660931078926711,95.51800248329145
8.23,-0.1558051855765545,0.006648503968704833,95.79533417710236
8.24,-0.1511866622223876,-0.06372000766268043,96.19132520259356
8.25,-0.14772276970676243,0.0072232578164667,96.6397470955714
8.26,-0.14831757953267785,-0.06601902305372791,96.87706575893198
8.27,-0.1402351636628858,0.015300879460687526,96.83843248815235
8.28,-0.14887740054530416,-0.06486951535820416,96.5072901671841
8.29,-0.14544849684296812,0.009537807095291513,95.94020894252597
8.3,-0.1506268412097613,-0.07237238315466313,95.26688622322386
8.31,-0.1448536870170527,0.007798011664228566,94.5273350397281
8.32,-0.1465681388682207,-0.06833357233255272,93.82779688668268
8.33,-0.12931865391667313,0.01587563330844939,93.22070263157423
8.34,-0.10283212225679175,-0.0625704999671567,92.67983684065942
8.35,-0.07288169808128521,0.019339690282797938,92.05894498884395
8.36,-0.04065700104198435,-0.041801692008842775,91.39941986624885
8.37,0.00829234874952693,0.03836870281004892,90.7923256111404
8.38,0.016339775806029855,-0.01930862250724324,90.33010612145554
8.39,-0.016479731059186428,0.05394919225072871,89.8678866317707
8.4,-0.05276313044002789,-0.04526574898319132,89.3408184375629
8.41,-0.0936300643617471,0.010687314790815246,88.78615504994109
8.42,-0.12414030954987994,-0.07005783387583832,88.2715046927696
8.43,-0.1339021884575509,-0.008341697736435737,87.8755136672784
8.44,-0.13911552163763322,-0.07756070167229727,87.4795226417872
8.45,-0.13852071181171777,-0.006617436193150138,87.18839335126928
8.46,-0.13852071181171777,-0.07813545552005914,86.89864382042207
8.47,-0.13565162912200804,-0.007766943888673871,86.56888125912452
8.48,-0.17249484951547578,-0.08045000479888395,86.19910566737664
8.49,-0.07172706724274348,0.04587157060650788,85.90797637685873
8.5,0.28806289980951566,0.13526909476514412,85.63064468304782
8.51,1.18094242613516,0.4449992831576808,85.37952842298023
8.52,0.9656562579670621,0.30656127528595767,85.08977889213301
8.53,0.25062486959013247,0.10988672213695792,84.77243416787176
8.54,-0.20933806990894355,-0.04526574898319132,84.5489131012182
8.55,-0.12123623804688105,0.02221345952160727,84.43025376953791
8.56,-0.1005228605797083,-0.05795693529728443,84.20535294321364
8.57,-0.10227230124416546,0.011262068638577113,83.90180581565942
8.58,-0.1005228605797083,-0.07063258772360018,83.63827171855552
8.59,-0.0890115410075802,0.01011256094305338,83.41337089223124
8.6,-0.08096411395107728,-0.05736664756174521,83.12362136138402
8.61,-0.07172706724274348,0.01011256094305338,82.99116443299673
8.62,-0.065988901863324,-0.05736664756174521,82.84628966757312
8.63,-0.04985905893702901,0.02106395182608354,82.60759124454184
8.64,-0.058501295819447366,-0.05795693529728443,82.30404411698761
8.65,-0.04468071457023582,0.024528008800432086,81.98807915239708
8.66,-0.046989976247319265,-0.046990010526476916,81.7507604890365
8.67,-0.029705502482482545,0.03432989198793851,81.52585966271222
8.68,-0.020503444587437893,-0.03429882421238381,81.32717427013128
8.69,-0.006123042325600053,0.05163464297190389,81.27474340264463
8.7,0.007697538923611496,-0.008341697736435737,81.59208812690588
8.71,0.03302943974495114,0.07123840934691675,83.13603919842033
8.72,0.05087373452241416,0.018190182587274204,87.86171607057139
8.73,0.08369324138763044,0.10701295289814859,98.18369816708585
8.74,0.1159179384269313,0.06086177231164845,113.2589523291654
8.75,0.1780930596417387,0.16756404745425008,126.98756105264073
8.76,0.21609091087374815,0.11853909762894062,135.13228238878895
8.77,0.2696237952061372,0.22062780810167,137.41578464379916
8.78,0.30762164643814666,0.16409999047990154,135.36960105214953
8.79,0.3433102359930727,0.25466255622183886,130.30036402199391
8.8,0.35713081724228424,0.18140474146386693,123.01385320102173
8.81,0.3519524728754911,0.24773444227314179,115.89843257921648
8.82,0.29152679232514084,0.13237979163855745,111.23898417125908
8.83,0.22417332674354024,0.16352523663213966,109.33905510470375
8.84,0.13551167386885146,0.030865835013589964,108.99549494669918
8.85,0.06700357744870915,0.06375107543823513,108.98169734999217
8.86,0.011161431439236669,-0.042951199704366505,108.38840069159073
8.87,-0.020503444587437893,0.01183682248633898,107.04175525298652
8.88,-0.03834773936490091,-0.07467139854571059,105.8137691460626
8.89,-0.04237145289315237,-0.004893174649864539,105.4177781205714
8.9,-0.05216832061411245,-0.08332377403769328,105.8275667427696
8.91,-0.04412089355760953,-0.008341697736435737,106.63196663078831
8.92,-0.04583534540877754,-0.07987525095112209,107.1466169879598
8.93,-0.03719310852635918,-0.008341697736435737,107.02795765627951
8.94,-0.04065700104198435,-0.07583644012901168,106.44707883491438
8.95,-0.033764204824023154,-0.002578625371039725,105.70890741108931
8.96,-0.0314549431469397,-0.07813545552005914,104.79826602842662
8.97,-0.032014764159565993,-0.007192190040912004,103.38539212562877
8.98,-0.03950237020344263,-0.08102475864664582,101.31299310023581
8.99,-0.03663328751373289,0.0037592008421181533,99.13435258019886
9.0,-0.047549797259945556,-0.08217426634216955,97.43172914655379
9.01,-0.04065700104198435,-0.007192190040912004,96.57351863137774
9.02,-0.04929923792440272,-0.08389852788545515,96.46865689640447
9.03,-0.04468071457023582,-0.011231000863022417,96.75840642725169
9.04,-0.05734666498090564,-0.08793733870756557,96.98330725357596
9.05,-0.05216832061411245,-0.01354555014184723,97.11576418196326
9.06,-0.06081055749653082,-0.08793733870756557,97.3130698148735
9.07,-0.05160849960148616,-0.012955262406308017,97.63041453913473
9.08,-0.057941474806821075,-0.08910238029086665,98.01260796791892
9.09,-0.046989976247319265,-0.016419319380656563,98.40859899341012
9.1,-0.05276313044002789,-0.09082664183415225,98.73836155470768
9.11,-0.04929923792440272,-0.01699407322841843,98.81838761560833
9.12,-0.05332295145265418,-0.09140139568191412,98.59348678928406
9.13,-0.055037403303822195,-0.01699407322841843,98.02640556462593
9.14,-0.05965592665798909,-0.09025188798639038,97.22062591693653
9.15,-0.05276313044002789,-0.01238050855854615,96.5210877638911
9.16,-0.06137037850915711,-0.09255090337743785,95.9802219729763
9.17,-0.05332295145265418,-0.01988337635500511,95.38554555490416
9.18,-0.0590961056453628,-0.09429069880850079,94.72602043230906
9.19,-0.04814460708586099,-0.01065624701526055,94.00026684552031
9.2,-0.05276313044002789,-0.09140139568191412,93.19448719783091
9.21,-0.04065700104198435,-0.01354555014184723,92.53496207523581
9.22,-0.04468071457023582,-0.08793733870756557,91.8616393559337
9.23,-0.04412089355760953,-0.015844565532894695,91.16210120288828
9.24,-0.04583534540877754,-0.08621307716427996,90.63365324900978
9.25,-0.011301386692393242,-0.007192190040912004,90.15901592228862
9.26,0.013470693116320117,-0.07813545552005914,89.64436556511713
9.27,0.04338612847853752,0.009537807095291513,89.18214607543229
9.28,0.08943140676704991,-0.05564238601845961,88.8123704836844
9.29,0.10958496322159639,0.0412580059366356,88.52124119316649
9.3,0.07505100450521208,-0.03833763503449423,88.23149166231927
9.31,0.050313913509787866,0.019339690282797938,87.94036237180136
9.32,-0.0020993287973485896,-0.0873625848598037,87.66441043766115
9.33,-0.02225288525189505,-0.01930862250724324,87.29463484591327
9.34,-0.03719310852635918,-0.10466733584376908,86.91106165745838
9.35,-0.043526083731694094,-0.027386244151464068,86.59509669286784
9.36,-0.04814460708586099,-0.10351782814824535,86.35639826983656
9.37,-0.04181163188052608,-0.027386244151464068,86.026635708539
9.38,-0.05388277246528047,-0.10062852502165867,85.64444227975483
9.39,-0.08036930412516184,-0.033724070364621946,85.3408951522006
9.4,0.005388277246528047,-0.055067632170697746,85.06356345838968
9.41,0.36346379244761917,0.19120662465137336,84.86487806580874
9.42,1.2477360707041343,0.35213770202469596,84.70758546334882
9.43,1.0992085582917215,0.3948092917490702,84.44267160657422
9.44,0.3237514893644417,0.038943456657810786,84.11290904527667
9.45,-0.1120341801518364,-0.0002796099799922593,83.83557735146576
9.46,-0.057941474806821075,-0.07987525095112209,83.6106765251415
9.47,-0.03316939499810772,-0.011805754710784284,83.39957329552423
9.48,-0.03663328751373289,-0.09255090337743785,83.20226766261399
9.49,-0.029705502482482545,-0.018733868659481377,82.99116443299673
9.5,-0.03663328751373289,-0.09429069880850079,82.89872053505975
9.51,-0.020503444587437893,-0.015844565532894695,82.62138884124884
9.52,-0.018194182910354444,-0.08217426634216955,82.23919541246467
9.53,-0.0038137806485166047,-0.004318420802102672,81.94806612194674
9.54,-0.010706576866477807,-0.08274902018993142,81.78939375981612
9.55,-0.005528232499684619,-0.005467928497626405,81.71074745858617
9.56,-0.014170469382102981,-0.07987525095112209,81.4858466322619
9.57,0.0013645637182765832,0.0014601854510706877,81.1036532034777
9.58,0.007137717910985205,-0.06833357233255272,80.8263215096668
9.59,0.024387202862532785,0.01587563330844939,80.73387761172982
9.6,0.03302943974495114,-0.0498793136530636,80.81252391295979
9.61,0.052588186373582174,0.033755138140176645,81.4996442289689
9.62,0.06815820828725087,-0.025646448720401123,84.31159443785762
9.63,0.10269216700363518,0.06662484467704446,91.74298002425341
9.64,0.12742925799905938,0.010687314790815246,105.74754068186894
9.65,0.16889100174669405,0.11392553295906833,121.81208252784113
9.66,0.2103527454943287,0.06893939395586927,133.42827919547318
9.67,0.27021860503205264,0.17621642294623277,138.6686064247957
9.68,0.31108553895377183,0.1254672115776377,138.5499470931154
9.69,0.3559761864037425,0.22062780810167,134.64384746536078
9.7,0.3807482662124559,0.1658397859109645,128.29419346079462
9.71,0.41297296325175675,0.2534975146385378,120.40058838471397
9.72,0.4049255361952538,0.16930384288531303,113.89226201801718
9.73,0.3721060293300375,0.21255018645744914,110.63188991615063
9.74,0.28862272082214196,0.07989078483889943,109.55015833432101
9.75,0.21091256650695497,0.10469840361932378,109.37768837548337
9.76,0.1268694369864331,-0.01815911481171951,109.10035668167247
9.77,0.07564581433112752,0.02048919797832167,108.22972832946012
9.78,0.03649333226057632,-0.07409664469794873,106.89688048756291
9.79,0.02036348933428132,-0.011231000863022417,106.2097601715538
9.8,0.005983087072443481,-0.08793733870756557,106.4746740283284
9.81,0.005388277246528047,-0.01699407322841843,107.4115308447344
9.82,0.0013645637182765832,-0.09486545265626266,108.12348683481613
9.83,0.002519194556818308,-0.012955262406308017,108.32217222739708
9.84,-0.004968411487058329,-0.0873625848598037,108.13728443152314
9.85,0.0048284562339017565,-0.01238050855854615,107.76750883977526
9.86,0.00020993287973485896,-0.08967713413862852,107.17421218137382
9.87,0.005983087072443481,-0.014695057837370963,106.03866997238687
9.88,-0.004968411487058329,-0.09197614952967598,104.04491724822387
9.89,0.002519194556818308,-0.014695057837370963,101.81384586070028
9.9,-0.010146755853851518,-0.09429069880850079,99.75524443201434
9.91,-0.006123042325600053,-0.017584360963957643,98.27614206502282
9.92,-0.01878899273626988,-0.09890426347837307,97.48416001404043
9.93,-0.010146755853851518,-0.01815911481171951,97.26063894738687
9.94,-0.01591991004656014,-0.09775475578284934,97.39171611610347
9.95,-0.016479731059186428,-0.021032884050528843,97.59040150868441
9.96,-0.029145681469856254,-0.10062852502165867,97.73527627410802
9.97,-0.02568178895423108,-0.027386244151464068,97.86773320249532
9.98,-0.033764204824023154,-0.10698188512259389,98.13126729959922
9.99,-0.023967337103063067,-0.026811490303702203,98.46102986089676
