time_s,ECG1,ECG2,NIBP
0.0,2.140401537419241,0.10901257565482145,65.3291388247645
0.01,-1.8859769493179326,0.0667602866610722,65.1839182049629
0.02,2.3583661141980587,0.12462755202207661,65.08215777064936
0.03,-1.768244258211126,0.1118934135407589,65.08215777064936
0.04,2.310238899252371,0.1657108053519672,65.46481940384922
0.05,-1.7787182251001323,0.1581955760843043,66.8799254435218
0.06,2.320712866141377,0.20969577220464983,70.66414159455633
0.07,-1.6900209611919639,0.23689672702621864,78.42549472001147
0.08,2.3415282180600356,0.2687320732295129,88.98313978004057
0.09,-1.6788840850061848,0.25253257903032844,99.91072641898036
0.1,2.241826659825443,0.2982502237419445,108.68332386042624
0.11,-1.7369549394034611,0.22533162420875963,113.73742543133174
0.12,2.1548529600888826,0.22359894634982622,115.14087142123923
0.13,-1.8261825307490476,0.12116219630420982,114.07344686547123
0.14,2.00755451434602,0.08412881652411537,111.648156514332
0.15,-1.8662222522741103,-0.0015239214903872015,107.8183601687612
0.16,1.8944621883166213,0.017577286231589363,102.09009572052854
0.17,-1.9317176907952391,-0.053608635442662096,96.7890130955079
0.18,1.8423575175902982,-0.024675002762159892,93.38533856862502
0.19,-1.9201830690313966,-0.0767597167144348,91.43175023070998
0.2,1.8580021769941306,-0.03855730127048166,90.06116438104958
0.21,-1.7665206940395173,-0.0825422681231643,88.88137934572704
0.22,1.9188572504378516,-0.05824302682438756,87.93797531927866
0.23,-1.7323145743260533,-0.0767597167144348,87.34331278125894
0.24,1.9276076531552493,-0.047241566202003246,86.71367009394396
0.25,-1.698638782050007,-0.08197862592808959,85.31022410403648
0.26,1.8440810817619069,-0.02757671628495196,83.72657734503211
0.27,-1.7496827979014942,-0.06865996961484254,82.37931159490189
0.28,1.7895899375672024,-0.04897424406093664,81.54720804348393
0.29,-1.6551519321817272,-0.06114474034717963,81.08716608002483
0.3,1.812791762954242,-0.031042072002818746,81.02038579500658
0.31,-1.7218406074370467,-0.07039264747377594,81.09882612978993
0.32,1.7026162378306426,-0.030457554170889408,80.90802531545205
0.33,-1.7455727602615043,-0.06287741820611302,80.49250354200511
0.34,1.6132560646257015,-0.073294360996568,79.61587980057499
0.35,-1.7966167761129914,-0.07849239457336818,78.16685361613123
0.36,1.5692388873200036,-0.013673542139775575,77.15666930466459
0.37,-1.7160070056254482,-0.07156168313763461,76.71782743168748
0.38,1.5616817213367964,-0.06229290037418368,76.86410805601318
0.39,-1.680740231037148,-0.08312678595509364,77.26902978421911
0.4,1.6110021730166748,-0.06056022251525029,77.20118949467677
0.41,-1.6168357748282733,-0.09700908446341541,77.22344958968284
0.42,1.5761331440064381,-0.05651034896545417,77.06656892011615
0.43,-1.5872700201922172,-0.08312678595509364,76.93194834555554
0.44,1.533839530872349,-0.05072779755672465,77.23510963944794
0.45,-1.6627090981649344,-0.08659214167296043,77.99831289679945
0.46,1.447396158573207,-0.05997570468332095,79.09965759733862
0.47,-1.6487880029327107,-0.047826084033932584,80.09924186356427
0.48,1.4683440923512199,-0.00962366858997945,80.79566483589753
0.49,-1.5669849957109767,-0.036260981216473545,80.9748056004703
0.5,1.42485724248294,-0.02989391197581469,80.84018502590969
0.51,-1.5484235354013451,-0.07849239457336818,80.41300320269767
0.52,1.403378981267509,-0.0663427739239798,80.01974152425683
0.53,-1.5386124778091113,-0.11611029218539197,79.5936197055689
0.54,1.398208288752683,-0.07385800319164272,79.22261812213415
0.55,-1.452832014806742,-0.11901200570818404,78.80709634868721
0.56,1.3669189699450182,-0.09700908446341541,78.27921409568576
0.57,-1.5542571372129437,-0.08197862592808959,77.6167112681237
0.58,1.3784535917088607,-0.06114474034717963,76.87576810577828
0.59,-1.3878669037230311,-0.08717665950488977,76.12316489366776
0.6,1.476431585771845,-0.07156168313763461,75.4490020163406
0.61,-1.3235647019360928,-0.10164347584514087,74.83101937879071
0.62,1.364002169039219,-0.039726336934340335,74.30313712578925
0.63,-1.2828620711142578,0.14836315112577864,73.7646548275468
0.64,1.8817343298185882,0.36421723620254115,73.28129276455752
0.65,-0.9373537456363995,0.12694474771293934,72.79793070156823
0.66,1.3105716797193507,-0.22547775366674194,72.32622868834405
0.67,-1.5716253607883848,-0.20117851236796522,71.85452667511984
0.68,1.2056994289699317,-0.02989391197581469,71.40614476142584
0.69,-1.254489553212392,-0.015427095635563586,70.99062298797891
0.7,1.3935679236752752,-0.021209647044293106,70.60796135477906
0.71,-1.1953580439402798,-0.05651034896545417,70.27087991611548
0.72,1.3465013636044234,-0.06461009606504642,69.97937867198817
0.73,-1.1785201478022567,-0.025844038426018567,69.6422972333246
0.74,1.1900547695660992,0.004258629918342316,69.31687584442611
0.75,-1.3495507463695773,-0.04087449696134439,69.0137145505337
0.76,1.1656597074448691,-0.01947696918535971,68.73281335164738
0.77,-1.2353977654653423,-0.026407680621093284,68.46357220252617
0.78,1.1598261056332706,-0.0038411171812499324,68.17101095387476
0.79,-1.185546986348046,-0.01947696918535971,67.89010975498843
0.8,1.1448443555262107,0.007723985636209103,67.60920855610212
0.81,-1.1675158534758323,0.008308503468138441,67.35162745674599
0.82,1.1343703886372043,0.03204410257184047,67.13750654287793
0.83,-1.185546986348046,0.025677033331181612,66.92444563353396
0.84,1.0676817133818848,0.0453418832482329,66.71138472419
0.85,-1.1774594929274207,0.05344163034782515,66.53118395509313
0.86,1.0259184276852136,0.08642513657812348,66.39656338053251
0.87,-1.180906621270638,0.0887423322689862,66.4082234302976
0.88,0.8954578780803738,0.12694474771293934,66.89052548876279
0.89,-1.2400381305427504,0.14141156405319044,68.64271296709894
0.9,0.8774267452081601,0.1963979915282574,73.03431171044238
0.91,-1.1078540167663018,0.17381055245155944,81.49208780823076
0.92,1.1280064593881878,0.24963086550753635,92.65605545604468
0.93,-0.8422925524792144,0.25253257903032844,103.71826266954507
0.94,1.2711948674910607,0.24094660057601477,111.9513178082244
0.95,-0.7616827819916712,0.2432637962668775,116.2528161670194
0.96,1.2155104865621655,0.21606284144530868,117.09551976367835
0.97,-0.7842216980819382,0.15297666687064948,115.72493391401794
0.98,1.1082517623443655,0.08700965441005282,112.5576403960092
0.99,-0.9500816041344327,0.030875066907981794,107.5035388251037
1.0,0.9638701175073019,0.007723985636209103,101.85371471165439
1.01,-0.9622791351950478,-0.025844038426018567,97.52995625785331
1.02,0.8839232563165312,-0.06287741820611302,94.83436475306877
1.03,-0.970366628615673,-0.073294360996568,93.27297808907048
1.04,0.8346028046366527,-0.04145901479327373,92.3295740626221
1.05,-0.8637708136946454,-0.0750270388555014,91.5441107102645
1.06,0.897844351548755,-0.05651034896545417,90.75758735338282
1.07,-0.8503800458998397,-0.06749093395098386,89.66790270260873
1.08,0.9018218073293903,-0.043776210484136456,88.52203781205738
1.09,-0.8474632449940405,-0.06114474034717963,87.38783297127112
1.1,0.8385802604172882,-0.042043532625203064,86.45608899458783
1.11,-0.7402045207762402,-0.047241566202003246,85.7140858277183
1.12,0.8636382318352909,-0.03855730127048166,85.22012371948803
1.13,-0.797612465876744,-0.039726336934340335,84.49084060690771
1.14,0.7980102114548074,-0.03335926769368148,83.79441763457446
1.15,-0.8515732826340303,-0.0374091412434776,83.36723581136245
1.16,0.5939667299082135,-0.043776210484136456,83.08633461247612
1.17,-0.9182619578893498,-0.042043532625203064,82.6591527892641
1.18,0.5453091875251077,-0.05477767110652077,81.8959495319126
1.19,-0.9617488077576297,-0.07097716530570528,80.84018502590969
1.2,0.5069930301716538,-0.03450742772068553,79.73990032989461
1.21,-0.8422925524792144,-0.04260717482027778,78.88553668347056
1.22,0.570764904521174,-0.049558761892865975,78.39157457524028
1.23,-0.7756038772238949,-0.06749093395098386,78.2230338559085
1.24,0.6066945884062467,-0.073294360996568,78.27921409568576
1.25,-0.6695383897402853,-0.05592583113352483,78.57177534433717
1.26,0.6397074713855202,-0.07097716530570528,79.06573745256745
1.27,-0.6241953938410423,-0.0663427739239798,79.64979994534616
1.28,0.6542914759145165,-0.047826084033932584,80.29004267790215
1.29,-0.5784546523637356,-0.057658508992458224,80.90802531545205
1.3,0.565594212006348,-0.08659214167296043,81.49208780823076
1.31,-0.6214111747945975,-0.06461009606504642,82.0644902512444
1.32,0.5006291009226371,-0.0374091412434776,82.46835197492622
1.33,-0.5413317317444724,-0.09295921091361929,82.6708128390292
1.34,0.5145501961548609,-0.049558761892865975,82.61463259925193
1.35,-0.5853489090501702,0.012358377017934566,82.28921121035344
1.36,0.4989055367510285,0.021627159781385488,81.82810924237025
1.37,-0.598209349407558,-0.024090484930230555,81.2896269441278
1.38,0.393370376704837,-0.03855730127048166,80.72782454635517
1.39,-0.548225988430907,-0.018892451353430373,80.12150195857036
1.4,0.33993988738496866,-0.06575825609205047,79.51517937078556
1.41,-0.5303274374180478,-0.08139410809616025,78.90885678300074
1.42,0.2947294733450801,-0.14099405131609805,78.2230338559085
1.43,-0.5396081675728637,-0.09644544226834069,77.57219107811152
1.44,0.21411970285753681,-0.05072779755672465,76.93194834555554
1.45,-0.5621470836631307,-0.07444252102357206,76.28004556323447
1.46,0.20550188199949354,-0.06575825609205047,75.70764312022084
1.47,-0.48975738845556716,-0.06287741820611302,75.11192057767703
1.48,0.1451771359931906,-0.07966143023722685,74.5395181346634
1.49,-0.4578051603511298,-0.07907691240529752,73.98937578665586
1.5,0.26344015453741526,-0.00037576146338314556,73.48375362866048
1.51,0.01352334965416022,0.24731366981667363,73.07883190045455
1.52,1.0642345850386674,0.44001667362166347,72.66331012700762
1.53,0.3880671023306565,0.12347939199507255,72.20326816354851
1.54,0.3440499250249585,-0.24921335277044399,71.74322620008942
1.55,-0.09598926617266666,-0.11206041863559585,71.3043843271123
1.56,0.40609823520287014,-0.0374091412434776,70.92278269843656
1.57,0.05528663535083148,-0.06575825609205047,70.58570125977297
1.58,0.38408964655002115,-0.04665704837007391,70.26027987087448
1.59,0.02519055327735727,-0.013673542139775575,69.95711857698208
1.6,0.32323457310630016,-0.0374091412434776,69.71013752286694
1.61,0.08140526164367035,-0.002108439322316539,69.50767665876398
1.62,0.25243586021099074,-0.02989391197581469,69.27129564988984
1.63,0.1451771359931906,-0.002108439322316539,69.04763469530488
1.64,0.2206162139659079,-0.007890990731046056,68.77733354165956
1.65,0.0975802484849208,0.002525952059408923,68.53035248754442
1.66,0.15737466705380568,-0.0321902320298228,68.35121172297163
1.67,0.1764664548008554,-0.04319169265220712,68.18267100363984
1.68,0.11680461809132503,0.03550945828970725,67.95795004453079
1.69,0.11852818226293368,0.030875066907981794,67.69930894065055
1.7,-0.00676167482708011,0.025677033331181612,67.45232788653541
1.71,0.13178636819838488,0.07139467804279766,67.21594687766127
1.72,-0.010739130607715468,0.07371187373366038,66.99228592307632
1.73,0.19158078676726978,0.07832538947853122,66.84600529875061
1.74,0.004242619499344382,0.09337672365071167,66.96896582354613
1.75,0.29764627425087936,0.13389633478552754,67.82332946997018
1.76,0.01763338729415009,0.1408270462212611,70.42882059020629
1.77,0.4815373131755874,0.18598104873780244,76.62878705166314
1.78,0.20894901034271085,0.1819311751880063,87.0963317271438
1.79,0.5951599666424041,0.1801776216922183,99.24822359141828
1.8,0.07729522400368047,0.2554134169162659,109.77194850667622
1.81,0.4681465453807817,0.29593302805108174,116.53371736590572
1.82,-0.14239291694674583,0.2623650039888541,119.3194092552387
1.83,0.4593961426633839,0.25889964827098727,119.26322901546143
1.84,-0.27749383162899355,0.18771372659673582,117.52164158236627
1.85,0.360224911866209,0.13445997698060225,114.09676696500141
1.86,-0.3783886265977771,0.08700965441005282,108.97482510455355
1.87,0.3388792325101326,0.0488281146029543,103.72992271931017
1.88,-0.44043693677568874,-0.008475508562975393,99.9785667085227
1.89,0.37533924383262335,-0.04319169265220712,97.6984969771851
1.9,-0.4758362932233434,-0.039726336934340335,96.50811189662157
1.91,0.3492206175397845,-0.05246047541565804,96.42967156183822
1.92,-0.6845201398473453,-0.05477767110652077,96.02474983363228
1.93,0.26463339127160584,-0.04319169265220712,94.98064537739447
1.94,-0.7680467112406878,-0.06749093395098386,93.43091876316129
1.95,0.332515303261116,-0.05302411761073276,92.13877324828422
1.96,-0.8555507384146657,-0.07097716530570528,91.15084903182367
1.97,0.2964530375166887,-0.04087449696134439,90.44276600972533
1.98,-0.8416296431824419,-0.05651034896545417,90.1735248606041
1.99,0.3782560447384226,-0.02235780707129716,89.99332409150722
2.0,-0.8039763951257605,-0.05477767110652077,89.65730265736774
2.01,0.5533966809457329,-0.05477767110652077,89.48876193803595
2.02,-0.7187262595608093,-0.03799365907540694,89.48876193803595
2.03,0.6450107457597006,-0.031042072002818746,89.30856116893906
2.04,-0.7912485366277273,-0.06056022251525029,88.47751762204521
2.05,0.6919447239711979,-0.02004061138043443,87.28713254148168
2.06,-0.9982088190801205,-0.057073991160528886,86.09674746091817
2.07,0.5724884686927826,-0.05129143975179937,85.17560352947586
2.08,-0.9495512766970147,-0.0680754517829132,84.5131007019138
2.09,0.6953918523144152,-0.02814035848002668,83.95129830414116
2.1,-1.0145163877807255,-0.054193153274591434,83.24321528204283
2.11,0.6843875579879907,-0.047826084033932584,82.62629264901703
2.12,-1.030161047184558,-0.09527640660448201,82.73865312857156
2.13,0.8676156876159262,-0.023526842735155835,82.88387374837316
2.14,-0.9229023229667577,-0.06402557823311708,83.03015437269886
2.15,0.8913478404403838,-0.06229290037418368,83.24321528204283
2.16,-1.074708551927674,-0.08776117733681911,83.23261523680183
2.17,0.8705324885217255,-0.023526842735155835,83.10859470748221
2.18,-1.180906621270638,-0.07039264747377594,83.19869509203065
2.19,0.7997337756264161,-0.06519461389697576,83.47959629091697
2.2,-1.2190901967647374,-0.07097716530570528,83.8951180643639
2.21,0.9726205202246997,-0.039726336934340335,84.09757892846687
2.22,-1.181436948708056,-0.07617519888250546,84.06365878369569
2.23,1.053230290712243,-0.047826084033932584,83.79441763457446
2.24,-1.2173666325931287,-0.10569334939493699,83.35557576159735
2.25,1.0723220784592926,-0.04550888834306985,82.86161365336707
2.26,-1.193634479768671,-0.07444252102357206,82.31147130535953
2.27,1.2660241749762347,-0.05997570468332095,81.7274088125808
2.28,-1.1071911074695293,-0.055341313301595495,81.19952655957935
2.29,1.260720900602054,-0.030457554170889408,80.59320397179455
2.3,-1.2718577767878332,-0.059391186851391616,79.94130118947348
2.31,1.209676884750567,-0.0588275446563169,79.24487821714023
2.32,-1.3321825227941362,-0.07385800319164272,78.5155951045599
2.33,1.2543569713530376,-0.031042072002818746,77.80751208246157
2.34,-1.319454664296103,-0.06229290037418368,77.22344958968284
2.35,1.3354970692779988,-0.04492437051114051,76.69556733668139
2.36,-1.4447445213861168,-0.11611029218539197,76.14542498867385
2.37,1.2839227259890937,-0.02699219845302262,75.6058826859073
2.38,-1.509046723173055,-0.05477767110652077,75.11192057767703
2.39,1.2949270203155183,-0.04665704837007391,74.65187861421792
2.4,-1.601191115424441,-0.07156168313763461,74.236356840771
2.41,1.3117649164535412,-0.047826084033932584,73.7869149225529
2.42,-1.6778234301313488,-0.0912265330546859,73.3152129093287
2.43,1.2804755976458764,-0.036260981216473545,72.93361128065294
2.44,-1.7792485525375505,-0.05302411761073276,72.58486979222427
2.45,1.2665545024136526,-0.0321902320298228,72.16934801877734
2.46,-1.8488540286986692,-0.12074468356711744,71.82166653487278
2.47,1.3152120447967586,-0.033943785525610816,71.54076533598645
2.48,-1.8992351352533838,-0.04319169265220712,71.28212423210623
2.49,1.1551857405558628,-0.02989391197581469,70.96730288844873
2.5,-2.0894901034271083,-0.10454518936793294,70.56344116476689
2.51,1.1634058158358425,-0.018892451353430373,70.18183953609115
2.52,-2.0929372317703256,-0.05302411761073276,69.945458527217
2.53,1.312958153187732,-0.0015239214903872015,69.81083795265639
2.54,-2.06456471386846,-0.015427095635563586,69.68787742786087
2.55,1.441695138620963,0.04419372322122884,69.4631564687518
2.56,-2.010073569673756,-0.010792704253838124,69.1822552698655
2.57,1.5616817213367964,-0.003256599349320595,68.87909397597309
2.58,-1.9700338481486932,-0.08544398164595637,68.67663311187012
2.59,1.6718572464603958,-0.03799365907540694,68.51975244230343
2.6,-1.9212437239062328,-0.057658508992458224,68.36181176821263
2.61,1.6823312133494022,-0.029309394143885354,68.19327104888083
2.62,-2.1544552145108193,-0.10510883156300765,67.94628999476569
2.63,1.5269452741859142,-0.04665704837007391,67.65478875063839
2.64,-2.131783716561198,-0.07097716530570528,67.41840774176424
2.65,1.6144493013598922,-0.05072779755672465,67.28378716720363
2.66,-2.1891916616617015,-0.09700908446341541,67.19368678265519
2.67,1.6278400691546977,-0.039141819102411,67.05906620809458
2.68,-2.237318876607389,0.02624067552625633,66.84600529875061
2.69,1.8550853760883312,0.31618239580006235,66.5651040998643
2.7,-1.6157751199534371,0.5239367337772326,66.36264323576133
2.71,1.9767955229757732,0.19581347369632807,66.22802266120071
2.72,-2.673380612024379,-0.19076156957751023,66.14958232641737
2.73,1.4688744197886379,-0.015990737830638306,66.01496175185676
2.74,-2.545173954028566,-0.007306472899116719,65.8008408379887
2.75,1.5541245553535892,-0.031042072002818746,65.55385978387356
2.76,-2.5915776048026453,-0.021209647044293106,65.28461863475233
2.77,1.558764920430997,-0.003256599349320595,65.08215777064936
2.78,-2.549814319105974,-0.0374091412434776,64.94753719608875
2.79,1.7703655679607981,0.022775319808389545,64.84683676629932
2.8,-2.491876046568052,-0.02235780707129716,64.75673638175088
2.81,1.8892914958017955,0.02104264194945615,64.66663599720243
2.82,-2.3858105590844425,-0.02699219845302262,64.565935567413
2.83,2.1165368027354288,0.027994229022044344,64.35287465806904
2.84,-2.307454680205926,0.007723985636209103,64.08257350442372
2.85,2.0388438331536847,0.04014384967143272,63.82499240506758
2.86,-2.440301703279147,-0.033943785525610816,63.610871491199525
2.87,1.9669844653835393,0.04014384967143272,63.46565087139792
2.88,-2.6066919367690597,0.0632949309432054,63.273790052535944
2.89,1.907852956111427,0.09396124148264101,63.026808998420805
2.9,-2.6577359526205466,0.040707491866507434,62.735307754293494
2.91,1.9936334191137963,0.12174671413613916,62.5773670802027
2.92,-2.564928651072388,0.10842805782289211,62.82540813884194
2.93,2.1107032009238305,0.16514716315689248,64.25111422375551
2.94,-2.5781868370078396,0.1402634040261864,68.50809239253833
2.95,2.1524664866205017,0.18249481738308101,77.76299189244939
2.96,-2.5596253766982078,0.22647978423576368,90.75758735338282
2.97,2.184949042162357,0.2860797274557015,104.22388482754045
2.98,-2.6646302093069814,0.2449964741258109,114.27590772957419
2.99,2.187865843068156,0.2930313145282897,119.74553107392663
3.0,-2.5336393322647233,0.2993983837689485,121.47545845725669
3.01,2.344975346403253,0.32833201644945076,120.47587419103105
3.02,-2.55909504926079,0.24789818764860297,118.03892379012673
3.03,2.456344108261043,0.2571460947751993,113.9504863406757
3.04,-2.564928651072388,0.1547302203664375,108.1215214626536
3.05,2.4697348760558486,0.1402634040261864,102.39325701442094
3.06,-2.6594595167921553,0.024507997667322937,98.65356105339858
3.07,2.2939313305517657,0.04707456110716629,96.63107242141709
3.08,-2.7816999911170153,-0.04897424406093664,95.49686758063083
3.09,2.4116640216585723,-0.0015239214903872015,94.53120345917637
3.1,-2.80211759745761,-0.06519461389697576,93.30689823384166
3.11,2.436589411217221,-0.03567646338454421,92.12817320304323
3.12,-2.7318492119997186,-0.05129143975179937,91.00456840749796
3.13,2.4499801790120266,-0.017723415689571698,90.04950433128448
3.14,-2.790450393834413,-0.07617519888250546,89.04992006505884
3.15,2.4986377213951325,-0.00962366858997945,88.20827647292398
3.16,-2.825186840985295,-0.059391186851391616,88.00581560882102
3.17,2.5010241948635135,-0.013673542139775575,87.91571522427257
3.18,-2.8705298368845384,-0.057073991160528886,87.89345512926648
3.19,2.5132217259241285,0.002525952059408923,87.66873417015744
3.2,-2.8646962350729397,-0.061708382542254345,87.35391282649994
3.21,2.5317831862337603,0.0019414342274795854,86.9617111525832
3.22,-2.947029569732092,-0.054193153274591434,86.53452932937118
3.23,2.477822369476474,-0.005010152845108608,86.23136803547878
3.24,-3.024722539313836,-0.05997570468332095,86.39990875481057
3.25,2.4406994488572105,-0.018307933521501035,85.95046683659245
3.26,-3.093134778740764,-0.057073991160528886,84.66998137148049
3.27,2.4678787300248857,-0.008475508562975393,83.29939552182009
3.28,-3.092604451303346,-0.05824302682438756,82.33373140036562
3.29,2.586804657865883,-0.02004061138043443,81.87368943690652
3.3,-3.018888937502237,-0.07617519888250546,81.83976929213534
3.31,2.581633965351057,-0.051875957583728705,82.18745077603991
3.32,-3.0728497542595234,-0.0680754517829132,82.6708128390292
3.33,2.582694620225893,-0.03162658983474809,83.17643499702457
3.34,-3.0960515796465633,-0.0987417623223488,83.5919567704715
3.35,2.7143484065649233,-0.010792704253838124,84.38908017259418
3.36,-3.0125250082532204,-0.053608635442662096,85.28796400903039
3.37,2.738080559389381,-0.00962366858997945,85.13108333946369
3.38,-3.0728497542595234,-0.08139410809616025,84.13043906871394
3.39,2.7079844773159065,-0.02989391197581469,83.2887954765791
3.4,-3.0914112145691552,-0.0750270388555014,82.9633740876806
3.41,2.7480241988409695,-0.03277474986175214,82.9856341826867
3.42,-3.159160544699311,-0.07734423454636413,83.04181442246396
3.43,2.767115986588019,-0.031042072002818746,82.85101360812608
3.44,-3.076296882602741,-0.07907691240529752,82.29981125559443
3.45,2.8401685910923553,-0.042043532625203064,81.62670838279138
3.46,-3.0873011769291656,-0.06056022251525029,80.96420555522931
3.47,2.8767611842742005,-0.03277474986175214,80.34622291767941
3.48,-3.1378148653432345,-0.10049531581813681,79.71658023036443
3.49,2.9869367093977996,0.016992768399660026,79.07633749780844
3.5,-3.0316167960002702,-0.05129143975179937,78.44775481501755
3.51,3.0332077783125246,-0.00962366858997945,77.88595241724492
3.52,-3.0711261900879148,-0.0750270388555014,77.38139026377364
3.53,2.9979410037242245,-0.024675002762159892,76.89802820078437
3.54,-3.1337048277032444,-0.08139410809616025,76.34788585277681
3.55,3.008945298050649,-0.021209647044293106,75.80834355001028
3.56,-3.1256173342826195,-0.0842749459820977,75.3027213920149
3.57,2.949150879481764,-0.02989391197581469,74.79815923854363
3.58,-3.2937311319441407,-0.07212532533270932,74.28087703078317
3.59,2.8645636532135854,-0.04897424406093664,73.87701530710133
3.6,-3.3830913051490814,-0.09064201522275656,73.57385401320893
3.61,2.8645636532135854,-0.03277474986175214,73.24737261978635
3.62,-3.3464987119672363,-0.07039264747377594,72.8541109413455
3.63,2.8772915117116185,0.0019414342274795854,72.43858916789857
3.64,-3.377788030774901,-0.047826084033932584,72.02306739445164
3.65,2.89996300966124,-0.009060026394904731,71.67538591054706
3.66,-3.3134858289879627,-0.07444252102357206,71.39448471166075
3.67,3.0285674132351166,-0.011356346448912844,71.13584360778052
3.68,-3.311762264816354,-0.073294360996568,70.86660245865929
3.69,3.0344010150467153,-0.015427095635563586,70.60796135477906
3.7,-3.3007579704899297,-0.06229290037418368,70.33872020565784
3.71,3.159690872136729,0.021627159781385488,70.04721896153053
3.72,-3.1992002662243735,-0.013109899944700855,69.7663177626442
3.73,3.237383841718473,0.062125895279346734,69.56385689854125
3.74,-3.1116962390503957,-0.03450742772068553,69.40697622897454
3.75,3.2263795473920482,0.017577286231589363,69.30521579466101
3.76,-3.2536914104190777,-0.07966143023722685,69.21511541011257
3.77,3.116204022268449,-0.04665704837007391,68.99145445552762
3.78,-3.2966479328499396,-0.0750270388555014,68.68723315711111
3.79,3.1793129873211967,-0.01947696918535971,68.3957319129838
3.8,-3.2450735895610348,-0.09412824657747797,68.20493109864593
3.81,3.190980190944394,-0.04087449696134439,68.07031052408531
3.82,-3.2646957047455025,-0.10686238505879567,67.92402989975962
3.83,3.3087128820512004,-0.04087449696134439,67.789409325199
3.84,-3.279810036711917,-0.09759360229534475,67.62086860586722
3.85,3.070330698931788,-0.05014327972479531,67.45232788653541
3.86,-3.413717714659974,0.03724213614864065,67.23926697719146
3.87,3.43917343165604,0.39141819102410996,67.0251460633234
3.88,-2.695389200677228,0.5291556429908875,66.82374520374452
3.89,3.446067688342475,0.10669537996395871,66.66580452965373
3.9,-3.6723849222606266,-0.25848213553389493,66.5651040998643
3.91,2.9840199084920007,-0.04260717482027778,66.43048352530369
3.92,-3.398735964552914,-0.021209647044293106,66.22802266120071
3.93,3.17294905807218,0.021627159781385488,66.01496175185676
3.94,-3.474042460666277,-0.03682462341154826,65.82416093751888
3.95,3.091278632709801,0.010041181327071835,65.6556202181871
3.96,-3.4786828257436846,-0.05302411761073276,65.47541944909021
3.97,3.1636683279173643,0.01930996409052276,65.3291388247645
3.98,-3.3858755241955265,-0.04841060186586192,65.20617829996898
3.99,3.263502468011312,0.046510918912091574,65.07155772540837
4.0,-3.2282356934230116,-0.01947696918535971,64.91361705131757
4.01,3.4809367173527113,0.0488281146029543,64.68889609220852
4.02,-3.2062271047701625,-0.023526842735155835,64.43131499285239
4.03,3.4941949032881627,0.03955933183950338,64.18433393873725
4.04,-3.076296882602741,0.02394435547224822,63.937352884622115
4.05,3.504668870177169,0.07139467804279766,63.72323197075405
4.06,-3.2062271047701625,0.03319226259884452,63.498511011645
4.07,3.4078841128483752,0.0974265972005078,63.273790052535944
4.08,-3.281003273446107,0.0667602866610722,63.060729143191985
4.09,3.3811025772587637,0.15182850684364543,62.91444851886628
4.1,-3.1928363369753567,0.10901257565482145,62.93776861839646
4.11,3.4768266797127216,0.18654469093287715,63.42007067686165
4.12,-3.1945599011469654,0.1512439890117161,65.30687872975842
4.13,3.5938964615227555,0.2322623356444932,70.42882059020629
4.14,-3.0403671987176684,0.21201296789551258,80.3684830126855
4.15,3.6194847603781763,0.3074981308685408,93.19453775428714
4.16,-3.072186844962751,0.2611959683249954,105.6729110119842
4.17,3.60901079348917,0.35263125774822746,114.69142950302111
4.18,-3.1505427238412675,0.30113106162788195,119.12754843637673
4.19,3.6241251254555844,0.3630482005386825,119.9257318430235
4.2,-3.075766555165323,0.26699939537057954,118.43218546856758
4.21,3.5417917907964322,0.28898144097849354,115.37725243011337
4.22,-3.202117067130173,0.160512771775167,110.580731958564
4.23,3.5197832021435835,0.15297666687064948,104.57262631596912
4.24,-3.200393502958564,0.034924940457777914,99.36058407097282
4.25,3.4809367173527113,0.05229347032082109,95.77776877951715
4.26,-3.2421567886552354,-0.04087449696134439,93.5538792879568
4.27,3.4176951704406093,-0.006158312872112663,92.10485310351305
4.28,-3.279810036711917,-0.06519461389697576,91.06074864727523
4.29,3.419418734612218,-0.003256599349320595,90.15126476559801
4.3,-3.329130488391795,-0.08485946381402704,89.09550025959511
4.31,3.330191143266631,0.004843147750271654,88.00581560882102
4.32,-3.390515889272934,-0.06229290037418368,86.88221081327575
4.33,3.361480462074296,0.007160343441134385,86.01830712613481
4.34,-3.329130488391795,-0.06114474034717963,85.32188415380156
4.35,3.440234086530876,-0.0009394036584578639,84.83852209081229
4.36,-3.268275414948074,-0.05014327972479531,84.43466036713045
4.37,3.4606516928714712,0.023359837640318883,84.14209911847904
4.38,-3.2896210943041506,-0.0680754517829132,83.92903820913507
4.39,3.457071982668899,0.0007932742004755295,83.74883744003819
4.4,-3.159823453996083,-0.06114474034717963,83.50185638592305
4.41,3.6444101499368244,0.019873606285597475,83.1308548024883
4.42,-3.0733800816969414,-0.073294360996568,82.53619226446858
4.43,3.657668335872276,0.019873606285597475,82.19911082580501
4.44,-3.1314509360942178,-0.0680754517829132,81.81750919712925
4.45,3.4646291486521066,-0.010792704253838124,81.17726646457326
4.46,-3.209143905675962,-0.053608635442662096,80.52536368225219
4.47,3.448454161810856,0.007160343441134385,80.12150195857036
4.48,-3.2212088548772226,-0.06692729175590914,79.96462128900366
4.49,3.453624854325682,0.0013569163955502478,80.03140157402191
4.5,-3.2722528707287095,-0.059391186851391616,80.3684830126855
4.51,3.4646291486521066,-0.00962366858997945,80.84018502590969
4.52,-3.262441813136476,-0.07444252102357206,81.49208780823076
4.53,3.432146593110251,-0.013673542139775575,82.51393216946249
4.54,-3.2896210943041506,-0.07561155668743073,83.4350761009048
4.55,3.327274342360832,-0.02235780707129716,83.91737815936999
4.56,-3.3765947940407104,-0.0750270388555014,83.95129830414116
4.57,3.275567417212572,-0.015990737830638306,83.70431725002602
4.58,-3.3053983355673378,-0.07385800319164272,83.42341605113971
4.59,3.2831245831957796,-0.023526842735155835,83.00789427769277
4.6,-3.421274880643181,-0.09586092443641135,82.74925317381255
4.61,3.2049012861766175,-0.010792704253838124,82.51393216946249
4.62,-3.4955207218817077,-0.06344106040118774,82.13127053626265
4.63,3.1516033787161035,-0.011940864280842182,81.61504833302628
4.64,-3.561679069699609,-0.07561155668743073,80.9970656954764
4.65,3.0593264046053634,-0.017723415689571698,79.96462128900366
4.66,-3.4700650048856416,-0.09354372874554863,78.89719673323566
4.67,3.254752065293914,-0.043776210484136456,78.0661531863418
4.68,-3.2937311319441407,-0.07966143023722685,77.49269073880407
4.69,3.332445034875658,-0.014258059971704911,76.9764685355677
4.7,-3.2277053659855937,-0.07156168313763461,76.42632618756016
4.71,3.30340960767702,-0.005573795040183326,75.86452378978754
4.72,-3.326744014923414,-0.08485946381402704,75.28046129700881
4.73,3.2391074058900817,-0.006158312872112663,74.77483913901345
4.74,-3.3320472892975945,-0.07849239457336818,74.28087703078317
4.75,3.214182016331433,-0.009060026394904731,73.80917501755897
4.76,-3.343581911061437,-0.08139410809616025,73.29295281432262
4.77,3.225186310657858,-0.04260717482027778,72.82125080109842
4.78,-3.222402091611413,-0.10279163587214493,72.37180888288032
4.79,3.330191143266631,0.020458124117526812,72.01246734921065
4.8,-3.1569066530902843,-0.021209647044293106,71.67538591054706
4.81,3.3556468602626977,0.05344163034782515,71.41674480666684
4.82,-3.209143905675962,-0.022942324903226497,71.13584360778052
4.83,3.2791471274151442,0.01352741268179324,70.82208226864712
4.84,-3.2235953283456036,-0.05997570468332095,70.50726092498962
4.85,3.152133706153522,-0.003256599349320595,70.19243958133214
4.86,-3.2815336008835256,-0.10627786722686633,69.87867824219873
4.87,3.22054594558045,-0.043776210484136456,69.55219684877615
4.88,-3.2050338680359722,-0.10337615370407427,69.27129564988984
4.89,3.3138835745660264,-0.03277474986175214,69.08049483555196
4.9,-3.214844925628206,-0.09239556871854457,68.95753431075644
4.91,3.254221737856496,-0.039726336934340335,68.81125368643073
4.92,-3.239239987749436,-0.13116162635757242,68.57593268208069
4.93,3.215905580503042,-0.028724876311956016,68.29503148319436
4.94,-3.137151956046462,-0.05072779755672465,68.0925706190914
4.95,3.419418734612218,0.160512771775167,67.9356899495247
4.96,-2.5370864606079406,0.41398475446395333,67.85618961021726
4.97,3.973743488573432,0.49905297464652654,68.13709080910357
4.98,-2.8791476577425814,-0.05072779755672465,68.18267100363984
4.99,3.019286683080301,-0.22142788011694584,67.65478875063839
5.0,-3.280472946008689,-0.057658508992458224,66.83434524898553
5.01,3.143383303436124,0.04419372322122884,66.77816500920827
5.02,-3.134898064437435,-0.05477767110652077,67.43006779152934
5.03,3.2339367133752557,0.01582373273580135,68.2388512434171
5.04,-3.1632705823393006,-0.03567646338454421,68.2494512886581
5.05,3.212988779597243,0.021627159781385488,67.37388755175208
5.06,-3.209143905675962,-0.06229290037418368,66.5534440500992
5.07,3.038511052686705,0.0343612982627032,66.09340208664011
5.08,-3.1801084784773237,-0.010792704253838124,66.02556179709775
5.09,3.142852975998706,0.03550945828970725,66.12732223141128
5.1,-3.1627402549018826,0.0019414342274795854,66.41882347553859
5.11,3.0720542631033965,0.07139467804279766,66.35204319052033
5.12,-3.1620773456051103,0.0059913077772757095,65.77858074298261
5.13,3.143383303436124,0.06271041311127606,65.22843839497507
5.14,-3.129064462625837,0.022775319808389545,64.95919724585384
5.15,3.1201814780490844,0.11652780492248437,64.92527710108267
5.16,-3.2287660208604296,0.05112443465696241,64.61045575742517
5.17,2.9381465851553394,0.07195832023787237,64.04971336417664
5.18,-3.2345996226720284,0.10725902215903343,63.55469125142226
5.19,3.0888921592414196,0.1923481179784613,63.25152995752986
5.2,-2.9626742291359243,0.14719411546191996,63.40947063162066
5.21,3.2733135256035455,0.19696163372333214,64.32955455853886
5.22,-2.8583323058239234,0.18827736879181053,67.14916659264301
5.23,3.286041384101579,0.2860797274557015,73.57385401320893
5.24,-2.8896216246315882,0.2484827054805323,83.8951180643639
5.25,3.051238911184738,0.31444971794112897,96.05866997840347
5.26,-3.006161079004204,0.2768318203291052,107.22263762621739
5.27,3.2112652154256343,0.34338335062163117,114.74760974279839
5.28,-2.82120938520466,0.2750991424701718,118.15128426968127
5.29,3.2872346208357692,0.3046172929826033,118.18414440992834
5.3,-2.787533592928614,0.1836638530469397,116.19663592724214
5.31,3.2193527088462592,0.17324691025648473,112.34457948666525
5.32,-2.8473280114974986,0.07312735590173104,106.48169446387197
5.33,3.098835798693008,0.07139467804279766,100.27006795265002
5.34,-3.002051041364214,-0.017723415689571698,95.65480825472163
5.35,2.9689055765255863,0.01352741268179324,92.65605545604468
5.36,-3.0601218957614904,-0.07617519888250546,90.71306716337065
5.37,2.951537352950145,-0.03335926769368148,89.34248131371025
5.38,-3.0345335969060696,-0.06749093395098386,88.3428970474846
5.39,2.9561777180275532,-0.03335926769368148,87.53411359559682
5.4,-3.007354315738395,-0.08544398164595637,86.56844947414235
5.41,2.8709275824626017,-0.0015239214903872015,85.46710477360317
5.42,-2.97606499693073,-0.06575825609205047,84.27671969303965
5.43,3.055348948824728,-0.013673542139775575,83.26653538157301
5.44,-2.897178790614795,-0.059391186851391616,82.45775192968523
5.45,2.9943612935216524,0.01352741268179324,81.87368943690652
5.46,-2.9133537774560456,-0.04665704837007391,81.48042775846567
5.47,2.893466498552869,-0.006742830704042001,81.16560641480818
5.48,-2.9621439016985063,-0.05302411761073276,80.8179249309036
5.49,2.9358926935463128,0.007723985636209103,80.3568229629204
5.5,-2.9203806160018346,-0.05302411761073276,79.77276047014169
5.51,2.9677123397913956,-0.006158312872112663,79.04347735756136
5.52,-2.8524987040123246,-0.06749093395098386,78.20077376090241
5.53,2.957901282199162,-0.006742830704042001,76.58320685712687
5.54,-2.847858338934917,-0.07212532533270932,75.17976086721939
5.55,2.9080505030818653,-0.04087449696134439,74.68579875898911
5.56,-2.8757005293993645,-0.08544398164595637,74.79815923854363
5.57,2.929528764297296,-0.007890990731046056,75.40448182632844
5.58,-2.9429195320921018,-0.07561155668743073,76.17934513344503
5.59,2.8848486776948254,-0.022942324903226497,76.79732777099493
5.6,-2.898902354786404,-0.0767597167144348,77.20118949467677
5.61,2.8465325203413716,-0.030457554170889408,77.6050512183586
5.62,-2.8536919407465153,-0.08485946381402704,78.08841328134788
5.63,2.844808956169763,-0.0321902320298228,78.76257615867505
5.64,-2.842687646420091,-0.08776117733681911,79.49291927577947
5.65,2.831550770234312,-0.06056022251525029,80.18828224358862
5.66,-2.850775139840716,-0.10396067153600361,80.64938421157181
5.67,2.8094095997221085,-0.006158312872112663,80.8179249309036
5.68,-2.9191873792676444,-0.08371130378702298,80.6599842568128
5.69,2.686506216100476,-0.03567646338454421,80.23386243812489
5.7,-2.958564191495934,-0.08139410809616025,79.70598018512344
5.71,2.6813355235856497,-0.03162658983474809,79.22261812213415
5.72,-2.9260816359540787,-0.08197862592808959,78.76257615867505
5.73,2.6789490501172684,-0.028724876311956016,78.2346939056736
5.74,-2.9707617225565492,-0.08544398164595637,77.5944511731176
5.75,2.6447429304038046,-0.017723415689571698,76.9881285853328
5.76,-2.9179941425334537,-0.04550888834306985,76.41466613779508
5.77,2.693533054646265,0.03955933183950338,75.85392374454653
5.78,-2.8461347747633083,-0.021209647044293106,75.28046129700881
5.79,2.703344112238499,-0.003256599349320595,74.70805885399518
5.8,-2.838577608780101,-0.0663427739239798,74.10173626621038
5.81,2.709177714050097,-0.044360728316065794,73.63003425298619
5.82,-2.7794460995079886,-0.10396067153600361,73.09049195021964
5.83,2.716071970736532,-0.05477767110652077,72.41632907289248
5.84,-2.8153757833930615,-0.09586092443641135,71.71990610055924
5.85,2.6569404614644196,-0.05592583113352483,71.1591637073107
5.86,-2.8356608078743015,-0.09817812012727409,70.73198188409869
5.87,2.577523927711067,-0.053608635442662096,70.36098030066393
5.88,-2.813652219221453,-0.09527640660448201,69.99103872175327
5.89,2.6180939766735474,-0.047826084033932584,69.59777704331242
5.9,-2.7816999911170153,-0.0825422681231643,69.22677545987766
5.91,2.7195190990797493,0.12462755202207661,68.83351378143682
5.92,-2.2570735736512115,0.38563563961538044,68.46357220252617
5.93,3.3654579178549313,0.4938549410697263,68.14875085886867
5.94,-2.4466656325281635,-0.014258059971704911,67.91236984999452
5.95,2.4585979998700696,-0.20871461727248275,67.74382913066273
5.96,-2.8351304804368835,-0.0767597167144348,67.55302831632486
5.97,2.6686076650876167,0.030290549076052456,67.28378716720363
5.98,-2.556841157651763,-0.03509194555261487,66.93610568329906
5.99,2.692339817912074,0.01352741268179324,66.60962428987646
6.0,-2.5365561331705226,-0.04260717482027778,66.35204319052033
6.01,2.6882297802720845,0.016992768399660026,66.18350247118855
6.02,-2.717928116767495,-0.015427095635563586,66.08174203687501
6.03,2.497444484660942,0.02855787121711906,66.02556179709775
6.04,-2.6408980564825235,-0.011356346448912844,65.9587815120795
6.05,2.6279050342657815,0.022775319808389545,65.83476098275987
6.06,-2.4652270928377953,-0.0015239214903872015,65.66622026342809
6.07,2.749747763012578,0.034924940457777914,65.53159968886747
6.08,-2.3828937581786436,-0.005573795040183326,65.43089925907803
6.09,2.745637725372588,0.04997627462995836,65.36305896953569
6.1,-2.394958707379904,0.03724213614864065,65.28461863475233
6.11,2.770032787493818,0.0991592750594412,65.14999806019172
6.12,-2.2888932198962944,0.07139467804279766,64.98145734085993
6.13,2.7752034800086443,0.11362609139969229,64.66663599720243
6.14,-2.370696227118028,0.09974379289137053,64.24051417851452
6.15,2.702150875504308,0.17788130163821017,63.835592450308575
6.16,-2.3138186094549424,0.1512439890117161,63.857852545314664
6.17,2.6407654746231692,0.2091112543727205,64.82457667129323
6.18,-2.355581895151614,0.1836638530469397,67.91236984999452
6.19,2.6813355235856497,0.2542652568892618,74.9995600981225
6.2,-2.2825292906472776,0.28202985390590535,85.82644630727285
6.21,2.6703312292592254,0.33586812135396826,97.93487798605925
6.22,-2.233871748264172,0.30286373948681533,108.29006218198539
6.23,2.6691379925250347,0.3462850641444232,114.82605007758173
6.24,-2.19091522583331,0.2866642452876308,117.3308407680284
6.25,2.6436822755289686,0.28029717604697196,117.06159961890717
6.26,-2.3394069083103632,0.18134665735607697,114.85997022235291
6.27,2.485909862897099,0.15934373611130834,110.7386726326548
6.28,-2.3746736828986634,0.06966200018386426,104.78568722531308
6.29,2.3850150679283155,0.05112443465696241,99.04576272731532
6.3,-2.4228008978443514,-0.031042072002818746,95.02516556740665
6.31,2.3078524257839894,-0.011356346448912844,92.38575430239936
6.32,-2.4582002542920063,-0.03799365907540694,90.71306716337065
6.33,2.2347998212796534,-0.010208186421908787,89.48876193803595
6.34,-2.480208842944855,-0.05997570468332095,88.45525752703912
6.35,2.218624834438403,-0.030457554170889408,87.45567326081348
6.36,-2.4635035286661866,-0.061708382542254345,86.44442894482273
6.37,2.256940991791857,-0.025844038426018567,85.4109245338259
6.38,-2.5185250002983093,-0.047826084033932584,84.41134026760027
6.39,2.172751511101742,-0.008475508562975393,83.45733619591088
6.4,-2.5358932238737504,-0.028724876311956016,82.6824728887943
6.41,2.120646840375419,-0.007890990731046056,82.0528302014793
6.42,-2.4686742211810127,-0.028724876311956016,81.61504833302628
6.43,2.1055325084090044,0.0007932742004755295,81.07550603025973
6.44,-2.471591022086812,-0.04550888834306985,80.29004267790215
6.45,2.1838883872875208,0.0007932742004755295,79.77276047014169
6.46,-2.2448760425905965,-0.033943785525610816,79.36889874645985
6.47,2.2760327795389066,-0.005573795040183326,78.89719673323566
6.48,-2.222204544640975,-0.03682462341154826,78.29087414545086
6.49,2.247660261637041,-0.011940864280842182,77.50435078856917
6.5,-2.1967488276449085,-0.04550888834306985,76.76340762622375
6.51,2.2330762571080447,-0.020625129212363768,76.12316489366776
6.52,-2.19091522583331,-0.05651034896545417,75.78608345500419
6.53,2.2823967087879233,-0.020625129212363768,75.71824316546183
6.54,-2.114945820423175,-0.05997570468332095,75.94296412457088
6.55,2.2435502239970515,-0.029309394143885354,76.34788585277681
6.56,-2.1590955795882274,-0.06519461389697576,76.79732777099493
6.57,2.0864407206619546,-0.04665704837007391,77.85309227699784
6.58,-2.234932403139008,-0.07039264747377594,79.17809793212197
6.59,2.111896437658021,-0.024675002762159892,80.41300320269767
6.6,-2.0934675592077436,-0.05302411761073276,80.73948459612025
6.61,2.131120807264425,-0.018307933521501035,80.64938421157181
6.62,-2.091213667598717,-0.05824302682438756,80.38014306245059
6.63,2.071856716132958,-0.023526842735155835,80.03140157402191
6.64,-2.1728840929610964,-0.05824302682438756,79.82894070991895
6.65,1.9669844653835393,-0.02525952059408923,79.2904584116765
6.66,-2.1647965995404714,-0.0680754517829132,78.70639591889778
6.67,1.990186290770579,-0.042043532625203064,78.03223304157062
6.68,-2.0674815147742596,-0.0663427739239798,77.49269073880407
6.69,2.0261159746556516,-0.03799365907540694,76.95420844056163
6.7,-2.0147139347511636,-0.05246047541565804,76.49310647257842
6.71,2.058068202760089,-0.02757671628495196,76.02140445935423
6.72,-1.9810381424751176,-0.06056022251525029,75.51684230588296
6.73,2.007024186908602,-0.021209647044293106,74.96563995335131
6.74,-2.0814026100064833,-0.053608635442662096,74.3815774605726
6.75,1.9188572504378516,-0.031042072002818746,73.74239473254072
6.76,-1.9937660009731508,-0.05302411761073276,73.158332239762
6.77,1.8556157035257492,0.0007932742004755295,72.64105003200153
6.78,-2.132314043998616,-0.006158312872112663,72.14708792377125
6.79,1.8045716876742621,0.04592640108016224,71.69764600555315
6.8,-2.047726817730437,-0.018307933521501035,71.27046418234113
6.81,1.8167692187348774,-0.006742830704042001,70.8549424088942
6.82,-2.0628411496968515,-0.014258059971704911,70.43942063544728
6.83,1.7698352405233801,-0.033943785525610816,70.03555891176543
6.84,-1.983954943380917,-0.0825422681231643,69.65395728308968
6.85,1.8109356169232789,-0.049558761892865975,69.24903555488375
6.86,-1.8621122146341205,-0.057658508992458224,68.867433926208
6.87,1.8915453874108221,-0.043776210484136456,68.47417224776716
6.88,-1.795423539378801,-0.07966143023722685,68.16041090863376
6.89,1.8365239157786997,-0.04319169265220712,67.91236984999452
6.9,-1.8041739420961986,-0.06575825609205047,67.69930894065055
6.91,1.8729839271011903,-0.05246047541565804,67.39614764675815
6.92,-1.7282045366860634,-0.06519461389697576,66.94670572854005
6.93,2.0092780785176285,0.17961397949714358,66.49726381032194
6.94,-1.1797133845364474,0.4550680077938439,66.14958232641737
6.95,2.533506750405369,0.49095322754693427,65.88034117729615
6.96,-1.535165349465894,-0.06402557823311708,65.68848035843416
6.97,1.559295247868415,-0.18556353600071004,65.53159968886747
6.98,-1.8703322899141002,-0.018892451353430373,65.38531906454176
6.99,1.6782211757094123,0.0291423890490484,65.21677834520997
7.0,-1.8251218758742116,-0.020625129212363768,65.0376375806372
7.01,1.602782097736695,-0.0038411171812499324,64.88075691107049
7.02,-1.9009586994249925,-0.033943785525610816,64.67829604696753
7.03,1.4776248225060358,0.011773859186005228,64.46523513762357
7.04,-1.9463016953242356,-0.007890990731046056,64.2627742735206
7.05,1.3750064633656436,0.014675572708797296,64.0942335541888
7.06,-1.9944289102699233,-0.014842577803634249,63.914032785091926
7.07,1.3593618039618112,0.017577286231589363,63.75715211552523
7.08,-1.8546876305102677,-0.006158312872112663,63.622531540964616
7.09,1.570962451491612,0.04302468755737016,63.487910966404
7.1,-1.69519165370679,0.03550945828970725,63.37555048684948
7.11,1.5988046419560598,0.061541377447417396,63.273790052535944
7.12,-1.65170480383851,0.03550945828970725,63.17308962274651
7.13,1.5941642768786517,0.056343343870617214,63.060729143191985
7.14,-1.6563451689159179,0.07486003376066444,62.91444851886628
7.15,1.536756331778148,0.12462755202207661,62.82540813884194
7.16,-1.6151122106566647,0.12231035633121388,62.75756784929958
7.17,1.4769619132092633,0.14372875974405316,62.745907799534486
7.18,-1.5722882700851573,0.15704741605730022,63.22926986252377
7.19,1.597081077784451,0.21259748572744191,65.45315935408412
7.2,-1.440634483746127,0.21259748572744191,71.22594399232896
7.21,1.6897557974732549,0.27278194677930906,80.9748056004703
7.22,-1.4017879989552549,0.2704647510884463,92.7906760306053
7.23,1.655549677759791,0.3219649472087919,104.04474406296767
7.24,-1.3229017926393203,0.30344825731874464,112.07427833301992
7.25,1.6388443634811223,0.3202322693498585,115.87121453834365
7.26,-1.2644331926639805,0.2988138659370192,116.19663592724214
7.27,1.6637697530397706,0.2721974289473797,114.47836859367716
7.28,-1.2800778520678129,0.21142845006358324,111.14253435633663
7.29,1.6428218192617576,0.1622454496341004,105.9760723058766
7.3,-1.275967814427823,0.09105952795984894,100.07926713831215
7.31,1.5714927789290303,0.059808699588484,95.46294743585966
7.32,-1.2921428012690734,-0.006158312872112663,92.37515425715837
7.33,1.4927391544724502,-0.02814035848002668,90.39824581971315
7.34,-1.3003628765490534,-0.04841060186586192,89.08384020983002
7.35,1.4874358800982697,-0.021209647044293106,88.10651603861045
7.36,-1.2886956729258563,-0.04319169265220712,87.26487244647561
7.37,1.3401374343554069,-0.025844038426018567,86.26528818024995
7.38,-1.5298620750917133,-0.053608635442662096,85.17560352947586
7.39,1.2056994289699317,-0.043776210484136456,83.97355839914725
7.4,-1.440634483746127,-0.06575825609205047,82.89553379813825
7.41,1.281668834380067,-0.01947696918535971,81.98604991646104
7.42,-1.3287353944509188,-0.04087449696134439,81.33414713413997
7.43,1.3030145137361435,-0.01715977349449698,80.85184507567479
7.44,-1.2696038851788065,-0.047241566202003246,80.48084349224003
7.45,1.3012909495645348,-0.04260717482027778,80.2116023431188
7.46,-1.37049868014759,-0.043776210484136456,79.98688138400975
7.47,1.2364584203401785,-0.018307933521501035,79.60421975080989
7.48,-1.3008932039864713,-0.02989391197581469,79.05407740280235
7.49,1.1778572385054842,-0.02525952059408923,78.33539433546302
7.5,-1.3907837046288305,-0.04550888834306985,77.52661088357524
7.51,1.0792163351457273,-0.04031085476626967,76.72948748145257
7.52,-1.3553843481811758,-0.044360728316065794,76.04472455888441
7.53,1.1175324924991812,-0.03162658983474809,75.53910240088905
7.54,-1.3478271821979686,-0.05246047541565804,75.23594110699665
7.55,1.041563087089046,-0.04319169265220712,75.17976086721939
7.56,-1.3739458084908074,-0.047826084033932584,75.34830158655117
7.57,0.9557826240866767,-0.0374091412434776,75.72990321522693
7.58,-1.4684766742105744,-0.05651034896545417,76.24612541846328
7.59,0.8879007120971666,-0.0374091412434776,76.79732777099493
7.6,-1.4643666365705845,-0.06924448744677188,77.38139026377364
7.61,0.8554181565553112,-0.057073991160528886,77.9198725620161
7.62,-1.4198191318274684,-0.06056022251525029,78.39157457524028
7.63,0.8421599706198599,-0.044360728316065794,78.75091610890995
7.64,-1.3727525717566167,-0.04087449696134439,78.9872971177841
7.65,0.8461374264004953,-0.04550888834306985,79.06573745256745
7.66,-1.3768626093966068,-0.06056022251525029,78.99789716302509
7.67,0.8351331320740708,-0.05072779755672465,78.76257615867505
7.68,-1.3397396887773434,-0.07617519888250546,78.33539433546302
7.69,0.8148481075928304,-0.05014327972479531,77.82977217746766
7.7,-1.3617482774301923,-0.059391186851391616,77.33581006923737
7.71,0.7238969520756353,-0.05014327972479531,76.830187911242
7.72,-1.4029812356894455,-0.073294360996568,76.24612541846328
7.73,0.7441819765568756,-0.0588275446563169,75.6175427356724
7.74,-1.3519372198379584,-0.06575825609205047,74.9995600981225
7.75,0.8136548708586399,-0.04841060186586192,74.40489756010278
7.76,-1.1994680815802696,-0.055341313301595495,73.84309516233016
7.77,0.8021202490947973,-0.05246047541565804,73.30355285956361
7.78,-1.2690735577413885,-0.0321902320298228,72.74281046631506
7.79,0.815511016889603,-0.0009394036584578639,72.18100806854244
7.8,-1.1118314725469374,0.03204410257184047,71.64146576577589
7.81,0.8322163311682715,0.010625699159001172,71.1591637073107
7.82,-1.0834589546450717,-0.022942324903226497,70.67580164432142
7.83,0.9030150440635809,-0.021773289239367822,70.19243958133214
7.84,-1.108914671641138,-0.05477767110652077,69.71013752286694
7.85,0.7864755896909649,-0.07156168313763461,69.26069560464884
7.86,-1.0719243328812291,-0.07734423454636413,68.8451738312019
7.87,0.7527997974149189,-0.08659214167296043,68.48583229753224
7.88,-1.086375755550871,-0.07270984316463866,68.14875085886867
7.89,0.7266811711220801,-0.07156168313763461,67.84558956497627
7.9,-1.1020204149547035,-0.07156168313763461,67.54242827108386
7.91,0.7197869144356454,-0.061708382542254345,67.21594687766127
7.92,-1.0098760227033177,-0.0698081296418466,66.8799254435218
7.93,0.8270456386534456,-0.015990737830638306,66.54284400485821
7.94,-0.698441235079569,0.23343137130835187,66.21636261143563
7.95,1.5326462941381582,0.5297192851859621,65.86868112753105
7.96,-0.39403328600160953,0.23862940488515205,65.54325973863257
7.97,0.6658260976783591,-0.23589469645719693,65.24009844474016
7.98,-1.224393471138918,-0.18556353600071004,64.98145734085993
7.99,0.6804101022073553,0.0036741120864129785,64.80125657176305
8.0,-0.8955904599397283,-0.025844038426018567,64.61045575742517
8.01,0.7349012464020598,-0.00962366858997945,64.4196549430873
8.02,-0.8156435987489575,-0.014842577803634249,64.25111422375551
8.03,0.7806419878793665,-0.02757671628495196,64.1048335994298
8.04,-0.7842216980819382,0.0036741120864129785,63.97021302486919
8.05,0.7203172418730635,0.007160343441134385,63.82499240506758
8.06,-0.7518717243994373,0.0019414342274795854,63.70097187574797
8.07,0.721510478607254,-0.003256599349320595,63.588611396193436
8.08,-0.7059984010627761,0.0031104698913382604,63.46565087139792
8.09,0.7498829965091196,0.01582373273580135,63.285450102301034
8.1,-0.6202179380604069,0.04129200969843677,63.049069093426894
8.11,0.7319844454962605,0.024507997667322937,62.83600818408293
8.12,-0.7303934631840063,0.03319226259884452,62.65686741951015
8.13,0.6542914759145165,0.03955933183950338,62.53284689019053
8.14,-0.7101084387027661,0.05170895248889175,62.43214646040109
8.15,0.7180633502640368,0.0632949309432054,62.29752588584048
8.16,-0.5325813290270746,0.10147647075030392,62.16184530675577
8.17,0.7684444568187513,0.12289487416314321,62.06114487696633
8.18,-0.5552528269766961,0.11652780492248437,62.09506502173751
8.19,0.7024186908602044,0.15414570253450816,62.510586795184444
8.2,-0.5396081675728637,0.17788130163821017,63.99353312439938
8.21,0.7574401624923268,0.19696163372333214,68.05865047432023
8.22,-0.3563800379449281,0.22994513995363047,76.57260681188588
8.23,0.8131245434212219,0.2756627846652465,88.24113661317107
8.24,-0.36102040302233607,0.27393010680631313,100.04640699806507
8.25,0.7516065606807283,0.28029717604697196,108.93030491454138
8.26,-0.40331401615642537,0.29649667024615645,113.62506495177722
8.27,0.6728529362241482,0.2664148775386502,114.63524926324385
8.28,-0.48100698573816936,0.2247471063768303,113.20954317833028
8.29,0.510440158514871,0.160512771775167,110.14295009011099
8.3,-0.5325813290270746,0.11362609139969229,105.21286904852509
8.31,0.449054757633732,0.040707491866507434,99.15812320686985
8.32,-0.5297971099806298,0.021627159781385488,94.13794178073552
8.33,0.43858079074472556,-0.011940864280842182,90.88054787817835
8.34,-0.5274106365122485,-0.04260717482027778,88.89303939549214
8.35,0.3440499250249585,-0.05477767110652077,87.68039421992253
8.36,-0.5720907231147191,-0.06344106040118774,86.68080995369688
8.37,0.3394095599475506,-0.06692729175590914,85.7374059272485
8.38,-0.4723891648801261,-0.0698081296418466,84.61380113170323
8.39,0.3335759581359521,-0.08312678595509364,83.44567614614579
8.4,-0.4445469744156786,-0.05129143975179937,82.19911082580501
8.41,0.33304563069853405,-0.059391186851391616,81.09882612978993
8.42,-0.44216050094729736,-0.054193153274591434,80.18828224358862
8.43,0.30931347787407637,-0.059391186851391616,79.53743946579164
8.44,-0.3917793943925828,-0.053608635442662096,79.00955721279018
8.45,0.29008910826767215,-0.073294360996568,78.5261951498009
8.46,-0.31872678988824676,-0.04841060186586192,78.08841328134788
8.47,0.2495190593051915,-0.051875957583728705,77.62837131788878
8.48,-0.36566076809974396,-0.04260717482027778,77.07716896535715
8.49,0.2362608733697403,-0.0663427739239798,76.47084637757234
8.5,-0.3372882501978784,-0.05302411761073276,75.71824316546183
8.51,0.10924745210811786,-0.06229290037418368,74.94337985834524
8.52,-0.3407353785410957,-0.046093406174999185,74.19077664623472
8.53,0.15034782850801656,-0.0663427739239798,73.58445405844992
8.54,-0.3134235155140663,-0.0894938551957525,73.18059233476808
8.55,0.06231347389662062,-0.057658508992458224,73.02265166067728
8.56,-0.3859457925809843,-0.05302411761073276,73.11275204522573
8.57,-0.09890606707846591,-0.0825422681231643,73.52827381867266
8.58,-0.43168653405829094,-0.07270984316463866,74.14625645622256
8.59,-0.037520666197326885,-0.0767597167144348,74.8426794285558
8.6,-0.2816038692689834,-0.055341313301595495,75.52744235112395
8.61,0.023466989105748615,-0.0750270388555014,76.2238653234572
8.62,-0.16612506977120348,-0.0663427739239798,76.90968825054945
8.63,0.048922706101814914,-0.08776117733681911,77.52661088357524
8.64,-0.05488888977276795,-0.07270984316463866,78.03223304157062
8.65,0.03672517504119981,-0.08890933736382316,78.38097452999929
8.66,-0.041498121977962245,-0.09295921091361929,78.47001491002364
8.67,0.030361245792183238,-0.09354372874554863,78.26861405044477
8.68,0.048922706101814914,-0.03855730127048166,77.86369232223883
8.69,0.060457327865657454,-0.05302411761073276,77.3135499742313
8.7,-0.016042404981895946,-0.04319169265220712,76.77400767146474
8.71,-0.028770263479929094,0.0007932742004755295,76.24612541846328
8.72,-0.1186607641222882,-0.017723415689571698,75.71824316546183
8.73,-0.21491519401366388,-0.05014327972479531,75.1575007722133
8.74,-0.1394761160409466,-0.059391186851391616,74.59569837444066
8.75,-0.31461675224825686,-0.10454518936793294,74.03389597666803
8.76,-0.11349007160746223,-0.09817812012727409,73.43817343412422
8.77,-0.20788835546787474,-0.11437761432645858,72.8435108961045
8.78,0.04428234102440699,-0.10396067153600361,72.2371883083197
8.79,-0.17779227339440054,-0.12421003928498422,71.67538591054706
8.8,0.13589640583837476,-0.09991079798620747,71.13584360778052
8.81,-0.17487547248860127,-0.12074468356711744,70.65354154931534
8.82,0.2240633423091252,-0.10337615370407427,70.17017948632605
8.83,-0.13311218679193002,-0.10454518936793294,69.65395728308968
8.84,0.2675501921774051,0.008893021300067779,69.13667507532922
8.85,0.10341385029651932,0.25136354336646977,68.64271296709894
8.86,1.057870655789651,0.47936724909262063,68.20493109864593
8.87,0.20894901034271085,0.07195832023787237,67.84558956497627
8.88,0.18057649244084528,-0.28568309035546374,67.53076822131877
8.89,-0.5506124618992881,-0.18961340955050618,67.20534683242028
8.9,0.16784863394281213,-0.026407680621093284,66.8682653937567
8.91,-0.36977080573973387,-0.05302411761073276,66.52058390985212
8.92,0.2964530375166887,-0.043776210484136456,66.17184242142345
8.93,-0.43632689913569883,-0.05997570468332095,65.83476098275987
8.94,0.22578690648073385,-0.02757671628495196,65.56551983363865
8.95,-0.41776543882606715,-0.05302411761073276,65.28461863475233
8.96,0.29883951098506994,-0.08602849947788571,64.99311739062502
8.97,-0.4943977535329751,-0.0038411171812499324,64.7344762867448
8.98,0.32668170144951747,-0.003256599349320595,64.54367547240692
8.99,-0.5714278138179465,-0.047241566202003246,64.3973948480812
9.0,0.39217713997064635,-0.005573795040183326,64.25111422375551
9.01,-0.5691739222089198,-0.014258059971704911,64.07197345918273
9.02,0.39390070414225503,0.03319226259884452,63.903432739850935
9.03,-0.56506388456893,0.0059913077772757095,63.71263192551306
9.04,0.5226376895754862,0.04187652753036611,63.52183111117518
9.05,-0.4978448818761924,0.0291423890490484,63.363890437084386
9.06,0.5661245394437661,0.0650276088021388,63.20700976751769
9.07,-0.5830950174411436,0.05461066601168382,63.09464928796316
9.08,0.5394755857135092,0.08759417224198215,62.98228880840863
9.09,-0.6862437040189538,0.07776174728345651,62.91444851886628
9.1,0.5203837979664594,0.15414570253450816,63.22926986252377
9.11,-0.7407348482136583,0.16687984101582587,64.7122161917387
9.12,0.5980767675482034,0.22242991068596754,68.87909397597309
9.13,-0.6683451530060948,0.2247471063768303,77.39199030901464
9.14,0.7661905652097246,0.25889964827098727,88.87077930048605
9.15,-0.5540595902425055,0.259463290466062,100.39408848196965
9.16,0.9006285705951997,0.2924467966963603,109.13170577412025
9.17,-0.5518056986334787,0.2629495218207834,113.68124519155448
9.18,0.8925410771745745,0.25136354336646977,114.48896863891815
9.19,-0.6740461729583388,0.17151423239755131,113.01768235946831
9.2,0.8304927669966629,0.14663047326684525,109.91822913100194
9.21,-0.8220075279979742,0.0453418832482329,104.78568722531308
9.22,0.815511016889603,0.011773859186005228,98.68642119364566
9.23,-0.8804761279733139,-0.03799365907540694,93.86870063161429
9.24,0.8304927669966629,-0.04031085476626967,90.83602768816617
9.25,-0.9500816041344327,-0.07212532533270932,89.00539987504666
9.26,0.7806419878793665,-0.024675002762159892,87.75883455470589
9.27,-1.0707310961470387,-0.06519461389697576,86.76985033372122
9.28,0.8114009792496132,-0.0374091412434776,85.89428659681519
9.29,-1.0289678104503672,-0.0680754517829132,84.86078218581837
9.3,0.8757031810365514,-0.043776210484136456,83.79441763457446
9.31,-1.1310558421533414,-0.06402557823311708,82.62629264901703
9.32,0.7696376935529419,-0.039141819102411,81.62670838279138
9.33,-1.2232002344047272,-0.05246047541565804,80.79566483589753
9.34,0.8265153112160275,-0.03162658983474809,80.12150195857036
9.35,-1.26323995592979,-0.06229290037418368,79.51517937078556
9.36,0.9116328649216242,-0.053608635442662096,78.94171692324782
9.37,-1.2464020597917669,-0.06287741820611302,78.41383467024637
9.38,0.9145496658274235,-0.024090484930230555,77.94213265702219
9.39,-1.2725206860846057,-0.044360728316065794,77.35807016424346
9.4,0.9174664667332227,-0.039141819102411,76.6733072416753
9.41,-1.4423580479177356,-0.057658508992458224,75.86452378978754
9.42,0.720980151169836,-0.036260981216473545,75.04514029265877
9.43,-1.6360601444346776,-0.06865996961484254,74.35931736556651
9.44,0.7840891162225837,-0.04031085476626967,73.86535525733623
9.45,-1.5368889136375026,-0.08197862592808959,73.60671415345601
9.46,0.9482254581034695,-0.057073991160528886,73.57385401320893
9.47,-1.516073561718844,-0.0842749459820977,73.69681453800445
9.48,0.998076237220766,-0.06749093395098386,73.98937578665586
9.49,-1.531055311825904,-0.09991079798620747,74.43775770034986
9.5,1.048589925634835,-0.07385800319164272,75.07800043290585
9.51,-1.5496167721355358,-0.08602849947788571,75.77442340523909
9.52,1.0781556802708911,-0.03799365907540694,76.43692623280116
9.53,-1.6290333058888884,-0.0767597167144348,77.03264877534497
9.54,1.0381159587458286,-0.08139410809616025,77.51601083833425
9.55,-1.8105378713452154,-0.07849239457336818,77.84143222723274
9.56,1.0039098390323646,-0.04897424406093664,77.97605280179336
9.57,-1.6800773217403755,-0.0894938551957525,77.94213265702219
9.58,1.2804755976458764,-0.053608635442662096,77.67289150790096
9.59,-1.5217745816710881,-0.06924448744677188,77.2796298294601
9.6,1.3825636293488506,-0.04145901479327373,76.80792781623592
9.61,-1.6395072727778948,-0.08544398164595637,76.25778546822838
9.62,1.2567434448214188,-0.043776210484136456,75.67372297544966
9.63,-1.8041739420961986,-0.047241566202003246,75.02182019312859
9.64,1.2631073740704355,0.004258629918342316,74.37097741533161
9.65,-1.7630735656963,-0.020625129212363768,73.7752548727878
9.66,1.4109361472507163,0.008308503468138441,73.23677257454534
9.67,-1.6788840850061848,-0.043776210484136456,72.71949036678488
9.68,1.512361269656918,-0.031042072002818746,72.21492821331361
9.69,-1.7653274573053266,-0.10222799367707021,71.69764600555315
9.7,1.5135545063911084,-0.0680754517829132,71.13584360778052
9.71,-1.8279060949206563,-0.10396067153600361,70.57510121453198
9.72,1.4769619132092633,-0.07617519888250546,70.1033992013078
9.73,-1.8865072767553506,-0.11206041863559585,69.69847747310186
9.74,1.4045722180016997,-0.07270984316463866,69.28295569965492
9.75,-2.010603897111174,-0.09759360229534475,68.82291373619583
9.76,1.3581685672276205,-0.08371130378702298,68.38407186321871
9.77,-2.17474023899206,-0.1201601657351881,67.9356899495247
9.78,1.2880327636290836,-0.03567646338454421,67.4862480313066
9.79,-2.1120290195173754,0.19059456448267328,67.09298635286575
9.8,2.0099409878144012,0.5216195380863698,66.75590491420218
9.81,-1.6360601444346776,0.2756627846652465,66.44108357054468
9.82,1.415046184890706,-0.16182793689700803,66.12732223141128
9.83,-2.4657574202752133,-0.18729621385964343,65.8008408379887
9.84,1.4334750633409832,0.01582373273580135,65.4976795440963
9.85,-2.178717694772695,-0.057073991160528886,65.16059810543271
9.86,1.4967166102530856,-0.021209647044293106,64.86909686130541
9.87,-2.32137577543815,-0.06575825609205047,64.64437590219634
9.88,1.4880987893950421,-0.01715977349449698,64.43131499285239
9.89,-2.320182538703959,-0.057073991160528886,64.20659403374333
9.9,1.5744095798348294,-0.012525382112771518,63.99353312439938
9.91,-2.307985007643344,-0.043776210484136456,63.82499240506758
9.92,1.6886951425984187,0.007160343441134385,63.68931182598287
9.93,-2.2385121133415797,-0.029309394143885354,63.51017106141009
9.94,1.7663881121801628,0.014675572708797296,63.22926986252377
9.95,-2.2866393282872677,-0.00442563501317927,63.049069093426894
9.96,1.6869715784268102,0.03724213614864065,62.90384847362529
9.97,-2.501687104160286,0.002525952059408923,62.735307754293494
9.98,1.6422914918243396,0.04765907893909563,62.521186840425436
9.99,-2.454222798511371,0.03145958473991113,62.30812593108148
