time_s,ECG1,ECG2,NIBP
0.0,-0.07732002939718814,-0.0514016854639733,77.74850901343919
0.01,-0.07963873846792273,-0.02883386920116778,77.25412654863591
0.02,-0.0732771520430868,-0.043882421937938586,76.80552023798107
0.03,-0.07500132032645354,-0.03288424582052515,76.40040127376726
0.04,-0.06748037936625031,-0.051983175176653316,76.0296144251648
0.05,-0.07443650657845409,-0.02362051315645038,75.7160477692479
0.06,-0.03442391158859818,-0.006256027253660881,75.45741249830914
0.07,-0.007729030235781974,0.019219237572544727,75.26744145859307
0.08,0.031124210218706642,0.022688124479222072,75.07518161116957
0.09,0.04039904650164501,0.04179707952005163,74.93098672560194
0.1,-0.0013674438109460417,-0.003940094087642189,74.7845030323269
0.11,-0.03614807987196493,0.0001102825317151758,74.62657530051473
0.12,-0.06052425215404654,-0.03808757618054116,74.48009160723969
0.13,-0.09010265632559679,-0.04908575229795461,74.31300864459783
0.14,-0.1022610154272692,-0.06934766107944282,74.16652495132278
0.15,-0.09937749260853515,-0.05024873172331464,74.05437337365908
0.16,-0.09994230635653462,-0.07224508395814153,73.98799795014382
0.17,-0.09705878353780056,-0.0566150415086907,73.91933371892114
0.18,-0.08950811553822895,-0.07514250683684023,73.80718214125743
0.19,-0.0877839472548622,-0.05603355179601068,73.68358652505661
0.2,-0.07500132032645354,-0.06934766107944282,73.50505952387765
0.21,-0.14402750573986026,-0.01493827020505563,73.30135563791703
0.22,-0.0007729030235781975,0.025585547357920783,73.1571607523494
0.23,0.43826574140820634,0.10893908996519092,73.03356513614858
0.24,1.2015074771916763,0.056264142544142415,72.92141355848487
0.25,1.0159215704148037,-0.1747075816062412,72.81841721165085
0.26,0.14132234515733658,-0.26617190313692746,72.69711040315745
0.27,0.04039904650164501,-0.06646026388544549,72.52773863280818
0.28,0.020690019400400977,-0.04098499905923988,72.38125493953314
0.29,-0.015844511983353047,-0.02593644632246907,72.2462152847952
0.3,-0.032670016265863036,-0.041566488771919895,72.13406370713149
0.31,-0.042539393336169254,-0.018988646824412994,72.044800206542
0.32,-0.04949552054837303,-0.03461868927386382,71.95553670595253
0.33,-0.047741625225637886,-0.01493827020505563,71.87771724390015
0.34,-0.039061329730067366,-0.021304579990431685,71.79760897414036
0.35,-0.039061329730067366,-0.001624160921623498,71.67401335793954
0.36,-0.03151066173049574,-0.020141600565071652,71.48404231822346
0.37,-0.023989720770292513,0.007639571742451268,71.27118320143316
0.38,-0.011801634629251708,-0.002205650634303516,71.05603527693543
0.39,-0.006004861952415227,0.0209536810258834,70.86606423721935
0.4,0.004429328865890439,0.011689948361808634,70.6989812745775
0.41,0.014893246723564497,0.03542074404997419,70.52960950422823
0.42,0.03576162836017583,0.02848297023661949,70.37168177241607
0.43,0.04910906903658393,0.05568265283146239,70.22748688684844
0.44,0.07752811867276688,0.05511118880348376,70.15882265562576
0.45,0.10015039563211335,0.0909931143497214,70.33963846451215
0.46,0.13493103169313225,0.09273758348776145,71.20251897021048
0.47,0.1865668990760295,0.1413621542894526,73.54854687031867
0.48,0.25208529384396594,0.1581451504795621,78.24060267053505
0.49,0.3245895428634745,0.20445378811523454,85.0223399076283
0.5,0.4115708600553901,0.22298125344338407,91.45388956548588
0.51,0.49278513160983767,0.2611891378403418,96.6059957148942
0.52,0.5635354853066111,0.2530783589169257,100.96159678211947
0.53,0.5983458484069984,0.25655727150830443,104.17279399563341
0.54,0.58907101212406,0.21198307732597063,105.73147204438821
0.55,0.4956686544285717,0.17725410552039164,105.65365258233585
0.56,0.3541679470350248,0.10488871334583355,104.36276503534948
0.57,0.206840739925273,0.06899676211489453,101.99384905816707
0.58,0.10246910470284795,0.016321814693846016,99.50133746478383
0.59,0.028210960360604206,0.0053236385764325765,97.17819764174986
0.6,-0.012960989164619003,-0.03288424582052515,94.94432131930539
0.61,-0.032670016265863036,-0.021304579990431685,92.69900095832378
0.62,-0.04022068426543466,-0.04676981913193592,90.3644170967527
0.63,-0.05181422961910762,-0.03345570984850378,88.14198481284534
0.64,-0.048336166013005735,-0.04793279855729595,86.21251991548806
0.65,-0.05181422961910762,-0.03461868927386382,84.71792848254108
0.66,-0.03674262065933277,-0.0444639116506186,83.60785674444111
0.67,-0.04369874787153655,-0.03983204531858122,82.90061516284752
0.68,-0.03674262065933277,-0.04908575229795461,82.50694023717082
0.69,-0.03442391158859818,-0.024202002869130396,82.38334462097
0.7,-0.030351307195128446,-0.0444639116506186,82.48405216009661
0.71,-0.032670016265863036,-0.02593644632246907,82.71979935396114
0.72,-0.032670016265863036,-0.03983204531858122,83.3034453193539
0.73,-0.03498872533659763,-0.024773466897109034,83.94431147743224
0.74,-0.03962614347806682,-0.040403509346559854,83.96719955450646
0.75,-0.04485810240690385,-0.029986822941826436,83.34922147350235
0.76,-0.044263561619536,-0.04793279855729595,82.40623269804424
0.77,-0.05413293868984222,-0.03288424582052515,81.5639514617127
0.78,-0.052973584154474916,-0.05024873172331464,81.06956899690942
0.79,-0.05472747947721006,-0.03461868927386382,80.90248603426757
0.8,-0.05588683401257735,-0.049667242010634625,80.9459733807086
0.81,-0.05588683401257735,-0.03577164301452247,81.08101303544653
0.82,-0.06108906590204599,-0.0566150415086907,81.17027653603601
0.83,-0.0587703568313114,-0.039250555605901204,81.2389407672587
0.84,-0.05529229322520951,-0.049667242010634625,81.28242811369972
0.85,-0.057611002295944104,-0.041566488771919895,81.38542446053374
0.86,-0.05704618854794465,-0.05603355179601068,81.54106338463848
0.87,-0.057611002295944104,-0.03172126639516511,81.83403077118858
0.88,-0.056451647760576804,-0.049667242010634625,82.14759742710548
0.89,-0.06108906590204599,-0.040403509346559854,82.44056481365557
0.9,-0.06572648404351518,-0.06124690784072808,82.63053585337165
0.91,-0.06052425215404654,-0.03866906589322119,82.68775604605722
0.92,-0.05472747947721006,-0.05314615460201335,82.61909181483453
0.93,-0.062248420437413285,-0.039250555605901204,82.46116408302238
0.94,-0.05936489761867924,-0.05314615460201335,82.23686092769496
0.95,-0.06863973390161761,-0.04271944251257855,81.94618234885229
0.96,-0.062248420437413285,-0.05603355179601068,81.64177092376508
0.97,-0.0587703568313114,-0.03983204531858122,81.30531619077395
0.98,-0.05588683401257735,-0.051983175176653316,80.95741741924571
0.99,-0.06572648404351518,-0.047351308844615934,80.55458726273933
1.0,-0.0599297113666787,-0.0514016854639733,80.06020479793604
1.01,-0.06400231576014843,-0.040403509346559854,79.44222671693193
1.02,-0.058205543083311946,-0.05429910834267201,78.80364936656102
1.03,-0.06516167029551573,-0.043882421937938586,78.24060267053505
1.04,-0.0599297113666787,-0.054880598055352024,77.76910828280599
1.05,-0.061683606689413834,-0.03808757618054116,77.40061024191095
1.06,-0.0587703568313114,-0.049667242010634625,77.08475477828662
1.07,-0.06284296122478113,-0.03808757618054116,76.80552023798107
1.08,-0.06052425215404654,-0.05083022143599466,76.52399688996809
1.09,-0.06572648404351518,-0.041566488771919895,76.2218742725883
1.1,-0.06284296122478113,-0.051983175176653316,75.94035092457531
1.11,-0.06572648404351518,-0.039250555605901204,75.69315969217367
1.12,-0.05936489761867924,-0.05314615460201335,75.48030057538337
1.13,-0.06400231576014843,-0.04503537567859724,75.29948476649697
1.14,-0.05936489761867924,-0.0566150415086907,75.16673391946647
1.15,-0.061683606689413834,-0.03866906589322119,75.07518161116957
1.16,-0.06340777497278058,-0.05603355179601068,74.98591811058009
1.17,-0.06632102483088302,-0.043882421937938586,74.86232249437926
1.18,-0.058205543083311946,-0.05256466488933333,74.69523953173741
1.19,-0.06516167029551573,-0.03983204531858122,74.48009160723969
1.2,-0.053568124941842765,-0.04793279855729595,74.30156460606071
1.21,-0.06456712950814789,-0.04619835510395728,74.16652495132278
1.22,-0.05704618854794465,-0.0566150415086907,74.06581741219618
1.23,-0.05704618854794465,-0.03808757618054116,73.9765539116067
1.24,-0.05529229322520951,-0.05083022143599466,73.86440233394299
1.25,-0.058205543083311946,-0.03693462243988251,73.70647460213084
1.26,-0.05936489761867924,-0.049667242010634625,73.52565879324445
1.27,-0.04949552054837303,-0.03461868927386382,73.32424371499125
1.28,-0.05124941587110817,-0.05371761862999199,73.13427267527517
1.29,-0.048336166013005735,-0.03288424582052515,73.01067705907435
1.3,-0.04369874787153655,-0.0514016854639733,72.89852548141064
1.31,-0.056451647760576804,-0.03520017898654384,72.78637390374693
1.32,-0.015844511983353047,-0.001624160921623498,72.62844617193477
1.33,0.009661287794727469,0.014005881527827325,72.47051844012262
1.34,0.04679035996584934,0.021535170738563418,72.31487951601788
1.35,0.04967388278458338,0.03426779030931553,72.15695178420572
1.36,0.006748037936625032,-0.01493827020505563,72.01046809093067
1.37,-0.028032598124393855,-0.011459357613676903,71.86627320536304
1.38,-0.044263561619536,-0.03866906589322119,71.70834547355088
1.39,-0.0721177975077195,-0.054880598055352024,71.58474985735006
1.4,-0.08371134286139247,-0.07166359424546151,71.46115424114923
1.41,-0.08430588364876031,-0.06239986158138674,71.36044670202264
1.42,-0.08371134286139247,-0.07456101712416022,71.2254070472847
1.43,-0.08198717457802572,-0.06356284100674678,71.05603527693543
1.44,-0.07559586111382138,-0.0739795274114802,70.86606423721935
1.45,-0.07732002939718814,-0.06471579474740544,70.6989812745775
1.46,-0.07384196579108625,-0.07861139374351758,70.54105354276534
1.47,-0.14810011013333,0.011108458649128615,70.41745792656452
1.48,0.07693357788539903,0.03948114635403293,70.31675038743792
1.49,0.6441552160736908,0.11936580205462573,70.15882265562576
1.5,1.351718207120162,-0.027670889775807745,69.96885161590968
1.51,0.7682656054367283,-0.2215977089545937,69.77659176848618
1.52,0.11346810926915306,-0.20943655341182021,69.59806476730722
1.53,0.05606519624878771,-0.03751611215256253,69.46302511256928
1.54,0.020095478613033135,-0.03635313272720249,69.33942949636847
1.55,-0.019322575589454938,-0.03114980236718647,69.20438984163053
1.56,-0.032105202517863585,-0.03577164301452247,69.09223826396682
1.57,-0.03962614347806682,-0.021304579990431685,68.96864264776599
1.58,-0.04601745694227114,-0.03461868927386382,68.84504703156517
1.59,-0.042539393336169254,-0.01493827020505563,68.71000737682724
1.6,-0.033264557053230885,-0.018988646824412994,68.57725652979673
1.61,-0.030351307195128446,-0.003358604374962172,68.44221687505879
1.62,-0.02571388905365926,-0.012622337039036938,68.31862125885797
1.63,-0.01759840730608819,0.005905128289112595,68.20646968119426
1.64,-0.00888838477114927,0.0024262156977338674,68.05998598791922
1.65,-0.0025267983463133376,0.022106634766542056,67.90205825610705
1.66,0.009096474046728016,0.018637747859864707,67.72353125492809
1.67,0.016052601258931792,0.03773667721599288,67.51067213813778
1.68,0.03576162836017583,0.04179707952005163,67.31841229071428
1.69,0.04967388278458338,0.06784380837423587,67.24059282866192
1.7,0.07693357788539903,0.07247567470627325,67.39852056047407
1.71,0.10999004566305118,0.1014198264391562,68.12636141143447
1.72,0.15000264065290708,0.11530539975056697,70.1931547712371
1.73,0.19524719457160003,0.1483099537875087,74.43660426079865
1.74,0.2648381937330062,0.17377519292901292,81.49757603819745
1.75,0.33561827446914805,0.20908565444727192,89.15363781952614
1.76,0.42435348698379877,0.2362953627268162,95.0679169355062
1.77,0.4956686544285717,0.25655727150830443,99.6707092351331
1.78,0.5606519624878771,0.2530783589169257,103.36484487491322
1.79,0.5971864938716311,0.250762425750907,105.68798469794719
1.8,0.5832445124078551,0.21951236653670672,106.20296643211728
1.81,0.49162577707447036,0.1755096363823516,105.22793434875524
1.82,0.3524140517122896,0.11125502313120961,102.89335048718416
1.83,0.2103188035313749,0.07362862844693191,99.91790046753475
1.84,0.1030339184508474,0.027901480523939474,97.25830591150965
1.85,0.03228356475407394,0.007058082029771251,94.91227801140147
1.86,-0.008323571023149819,-0.015519759917735647,92.66695765041987
1.87,-0.032105202517863585,-0.012040847326356921,90.3529730582156
1.88,-0.039061329730067366,-0.027670889775807745,88.01838919664452
1.89,-0.044263561619536,-0.01725420337107432,85.89666445186374
1.9,-0.047741625225637886,-0.03808757618054116,84.14572655568543
1.91,-0.03674262065933277,-0.018407157111732977,82.78846358518382
1.92,-0.030351307195128446,-0.03288424582052515,81.79969865557725
1.93,-0.03498872533659763,-0.02072309027775167,81.12678918959499
1.94,-0.03094584798249629,-0.024202002869130396,80.77889041806675
1.95,-0.03498872533659763,-0.018407157111732977,80.72167022538119
1.96,-0.03151066173049574,-0.024202002869130396,80.87959795719334
1.97,-0.04022068426543466,-0.019570136537093014,81.20460865164736
1.98,-0.03442391158859818,-0.026517936035149087,81.54106338463848
1.99,-0.039061329730067366,-0.02303902344377036,81.7653665399659
2.0,-0.03962614347806682,-0.02535495660978905,81.73332323206198
2.01,-0.04485810240690385,-0.019570136537093014,81.41746776843766
2.02,-0.04949552054837303,-0.03288424582052515,80.7445583024554
2.03,-0.06108906590204599,-0.030568312654506453,79.73519410348203
2.04,-0.05529229322520951,-0.0340371995611838,79.08288390686658
2.05,-0.06108906590204599,-0.03288424582052515,78.97073232920287
2.06,-0.062248420437413285,-0.04619835510395728,79.26369971575296
2.07,-0.06632102483088302,-0.03693462243988251,79.66652987225935
2.08,-0.05936489761867924,-0.03520017898654384,79.87938898904966
2.09,-0.06284296122478113,-0.03114980236718647,79.90227706612389
2.1,-0.062248420437413285,-0.04676981913193592,79.80156952699728
2.11,-0.06456712950814789,-0.03288424582052515,79.8130135655344
2.12,-0.06108906590204599,-0.039250555605901204,80.0144286437876
2.13,-0.0697990884369849,-0.029405333229146416,80.38521549239006
2.14,-0.07443650657845409,-0.04908575229795461,80.76744637952963
2.15,-0.0732771520430868,-0.03866906589322119,81.02608165046838
2.16,-0.07675521564918869,-0.051983175176653316,81.12678918959499
2.17,-0.08139263379065786,-0.041566488771919895,81.10390111252076
2.18,-0.0697990884369849,-0.04271944251257855,81.00319357339417
2.19,-0.07500132032645354,-0.04098499905923988,80.89104199573046
2.2,-0.07152325672035166,-0.04214797848459991,80.7331142639183
2.21,-0.07907392471992328,-0.04098499905923988,80.5316991856651
2.22,-0.07036390218498437,-0.0444639116506186,80.25017583765212
2.23,-0.07500132032645354,-0.03693462243988251,79.90227706612389
2.24,-0.07443650657845409,-0.04330093222525857,79.48800287108038
2.25,-0.07791457018455598,-0.04214797848459991,79.03939656042556
2.26,-0.07616067486182083,-0.04271944251257855,78.57705740352618
2.27,-0.07791457018455598,-0.04214797848459991,78.11700705433424
2.28,-0.07268261125571895,-0.04330093222525857,77.65695670514229
2.29,-0.0721177975077195,-0.03751611215256253,77.1740182788761
2.3,-0.06863973390161761,-0.04561686539127726,76.70252389114705
2.31,-0.07500132032645354,-0.04214797848459991,76.2424735419551
2.32,-0.07732002939718814,-0.04793279855729595,75.8167553083745
2.33,-0.07384196579108625,-0.03983204531858122,75.44596845977203
2.34,-0.07268261125571895,-0.04851428826997597,75.17588915029616
2.35,-0.07500132032645354,-0.04561686539127726,74.97447407204297
2.36,-0.07152325672035166,-0.04561686539127726,74.7845030323269
2.37,-0.07443650657845409,-0.04271944251257855,74.6036872234405
2.38,-0.07152325672035166,-0.04851428826997597,74.43660426079865
2.39,-0.06863973390161761,-0.03461868927386382,74.24434441337515
2.4,-0.06688583857888247,-0.04271944251257855,74.04292933512195
2.41,-0.07559586111382138,-0.03751611215256253,73.87584637248011
2.42,-0.06516167029551573,-0.03808757618054116,73.72936267920505
2.43,-0.0721177975077195,-0.03693462243988251,73.61721110154134
2.44,-0.06804519311424977,-0.04676981913193592,73.50505952387765
2.45,-0.07152325672035166,-0.03751611215256253,73.39290794621394
2.46,-0.07268261125571895,-0.04793279855729595,73.28991159937992
2.47,-0.0732771520430868,-0.03866906589322119,73.16860479088652
2.48,-0.07268261125571895,-0.04503537567859724,72.99923302053725
2.49,-0.0697990884369849,-0.03288424582052515,72.82986125018796
2.5,-0.06688583857888247,-0.04214797848459991,72.651334249009
2.51,-0.06052425215404654,-0.032302756107845124,72.49340651719685
2.52,-0.06863973390161761,-0.029405333229146416,72.34692282392179
2.53,-0.05006033429637248,0.007639571742451268,72.2256160154284
2.54,-0.006569675700414678,0.011108458649128615,72.12261966859438
2.55,0.02125483314840043,0.033686300596635514,72.02191212946778
2.56,0.037515523682910966,0.041215589807371604,71.88687247472984
2.57,-0.007729030235781974,0.00995550490846996,71.719789512088
2.58,-0.043104207084168705,-0.010887893585698265,71.5389737032016
2.59,-0.06920454764961706,-0.022457533731090343,71.4062228561711
2.6,-0.09530488821506543,-0.05834948496202937,71.28262723997027
2.61,-0.1022610154272692,-0.05024873172331464,71.14758758523233
2.62,-0.10401491075000434,-0.06124690784072808,71.02399196903151
2.63,-0.10573907903337108,-0.06239986158138674,70.9118403913678
2.64,-0.10169620167926975,-0.06471579474740544,70.7996888137041
2.65,-0.1022610154272692,-0.0641443307194268,70.65320512042905
2.66,-0.09646424275043272,-0.06934766107944282,70.48383335007978
2.67,-0.09242136539633138,-0.05893097467470939,70.34879369534184
2.68,-0.16721459644720618,-0.010887893585698265,70.21604284831133
2.69,0.026486792077237458,0.04468447671404895,70.06955915503627
2.7,0.5478693355594684,0.10315426989249488,69.92307546176123
2.71,1.3070681939888371,0.003589195123093903,69.75599249911937
2.72,0.8691889040924198,-0.22506659586127103,69.59806476730722
2.73,0.10999004566305118,-0.22101621924191367,69.45158107403218
2.74,0.042717755572379605,-0.054880598055352024,69.31654141929424
2.75,-0.00020808927557874546,-0.03172126639516511,69.19294580309341
2.76,-0.03498872533659763,-0.04214797848459991,69.0487509175258
2.77,-0.0599297113666787,-0.03808757618054116,68.91371126278786
2.78,-0.06632102483088302,-0.032302756107845124,68.79011564658703
2.79,-0.06920454764961706,-0.02825237948848776,68.67796406892332
2.8,-0.058205543083311946,-0.02362051315645038,68.56581249125962
2.81,-0.058205543083311946,-0.013775290779695594,68.43077283652168
2.82,-0.04949552054837303,-0.009724914160338228,68.29573318178375
2.83,-0.04949552054837303,-0.002777114662282154,68.16069352704581
2.84,-0.04138003880080195,-0.007990470706999556,68.00276579523364
2.85,-0.03674262065933277,0.005905128289112595,67.8356828325918
2.86,-0.021076470912190077,0.008792525483109924,67.64571179287572
2.87,-0.011207093841883863,0.023269614191902092,67.46489598398934
2.88,-0.0007729030235781975,0.0261670370706008,67.29552421364005
2.89,0.014298705936196653,0.04295003326071028,67.13988528953531
2.9,0.031689023966706094,0.04873485333340632,67.00484563479738
2.91,0.05606519624878771,0.07131269528091322,67.0162896733345
2.92,0.08620841416833741,0.09215609377508144,67.40996459901119
2.93,0.12101877726872469,0.11415244600990833,68.75578353097569
2.94,0.17726233575372274,0.14309659774279126,71.92120459034119
2.95,0.23178172595535407,0.1656744396902982,77.74850901343919
2.96,0.31183664297443425,0.20503527782791456,85.34735060208232
2.97,0.38897831013541206,0.23051054265412016,91.83612045262545
2.98,0.4782783363980623,0.2536598486296057,96.62888379196843
2.99,0.5380296855285306,0.26407653503433914,100.42372697087515
3.0,0.5844038669432224,0.2553942920829444,103.21836118163817
3.01,0.5664487351647135,0.22066532027736538,104.49780469008742
3.02,0.4794376909334296,0.17262223918835426,104.09268572587362
3.03,0.34373375621671914,0.12225319924862306,102.35319186823243
3.04,0.2010439672484365,0.06263045232951847,99.57000169600651
3.05,0.07984682774350148,0.01805625814718469,96.86463098583296
3.06,0.011979996865462061,-0.002777114662282154,94.51860308572478
3.07,-0.032105202517863585,-0.012622337039036938,92.38543430240688
3.08,-0.047741625225637886,-0.021886069703111705,90.26370955762611
3.09,-0.06340777497278058,-0.03461868927386382,88.05272131225585
3.1,-0.06516167029551573,-0.03345570984850378,85.89666445186374
3.11,-0.07559586111382138,-0.041566488771919895,83.98779882387326
3.12,-0.06632102483088302,-0.03808757618054116,82.49549619863372
3.13,-0.057611002295944104,-0.027670889775807745,81.36253638345951
3.14,-0.052408770406475465,-0.027670889775807745,80.58663057064325
3.15,-0.061683606689413834,-0.0340371995611838,80.18380041413687
3.16,-0.05413293868984222,-0.02593644632246907,80.04876075939893
3.17,-0.0587703568313114,-0.029405333229146416,80.16091233706264
3.18,-0.058205543083311946,-0.027089400063127725,80.45387972361273
3.19,-0.06108906590204599,-0.027670889775807745,80.79033445660386
3.2,-0.06108906590204599,-0.024202002869130396,80.99174953485705
3.21,-0.06688583857888247,-0.03288424582052515,80.9459733807086
3.22,-0.06516167029551573,-0.02883386920116778,80.75600234099252
3.23,-0.06804519311424977,-0.02883386920116778,80.7331142639183
3.24,-0.07384196579108625,-0.032302756107845124,80.57518653210613
3.25,-0.07907392471992328,-0.03577164301452247,80.08309287501027
3.26,-0.08255198832602517,-0.03520017898654384,79.47655883254328
3.27,-0.08834876100286165,-0.04561686539127726,79.03939656042556
3.28,-0.0866245927194949,-0.03983204531858122,78.93640021359154
3.29,-0.08718940646749435,-0.040403509346559854,79.12866006101504
3.3,-0.08950811553822895,-0.03983204531858122,79.45367075546905
3.31,-0.09589942900243327,-0.04793279855729595,79.7008619878707
3.32,-0.09358071993169868,-0.04676981913193592,79.83590164260862
3.33,-0.09937749260853515,-0.049667242010634625,79.92516514319811
3.34,-0.09762359728580002,-0.04561686539127726,80.06020479793604
3.35,-0.09646424275043272,-0.04330093222525857,80.30739603033769
3.36,-0.09530488821506543,-0.040403509346559854,80.58663057064325
3.37,-0.09994230635653462,-0.04561686539127726,80.81093372597067
3.38,-0.09821813807316786,-0.04330093222525857,80.93452934217149
3.39,-0.1034203699626365,-0.04676981913193592,80.9253741113418
3.4,-0.09530488821506543,-0.04098499905923988,80.81093372597067
3.41,-0.10633361982073894,-0.049667242010634625,80.59807460918036
3.42,-0.09937749260853515,-0.04214797848459991,80.37377145385294
3.43,-0.10110166089190191,-0.04214797848459991,80.14946829852552
3.44,-0.09937749260853515,-0.03751611215256253,79.87023375821997
3.45,-0.10110166089190191,-0.04793279855729595,79.4994469096175
3.46,-0.09878295182116731,-0.040403509346559854,79.07143986832946
3.47,-0.10981168342684082,-0.05314615460201335,78.62283355767464
3.48,-0.10110166089190191,-0.04330093222525857,78.15133916994557
3.49,-0.10749297435610623,-0.049667242010634625,77.65695670514229
3.5,-0.10169620167926975,-0.03751611215256253,77.16486304804643
3.51,-0.09878295182116731,-0.041566488771919895,76.69336866031736
3.52,-0.1034203699626365,-0.03983204531858122,76.2424735419551
3.53,-0.09762359728580002,-0.04330093222525857,75.8281993469116
3.54,-0.09589942900243327,-0.03693462243988251,75.5031886524576
3.55,-0.09937749260853515,-0.0444639116506186,75.22166530444461
3.56,-0.09414553367969813,-0.03520017898654384,74.98591811058009
3.57,-0.09878295182116731,-0.0444639116506186,74.7845030323269
3.58,-0.09589942900243327,-0.03635313272720249,74.5922431849034
3.59,-0.09762359728580002,-0.0444639116506186,74.3908281066502
3.6,-0.09182682460896353,-0.03635313272720249,74.20085706693412
3.61,-0.09298617914433083,-0.04098499905923988,74.02004125804773
3.62,-0.09242136539633138,-0.03172126639516511,73.85295829540588
3.63,-0.09589942900243327,-0.04619835510395728,73.74080671774217
3.64,-0.09530488821506543,-0.03520017898654384,73.64009917861557
3.65,-0.10053684714390246,-0.04793279855729595,73.53710283178155
3.66,-0.0866245927194949,-0.030568312654506453,73.41350721558074
3.67,-0.09762359728580002,-0.04330093222525857,73.257868291476
3.68,-0.1034203699626365,-0.05314615460201335,73.08849652112673
3.69,-0.09298617914433083,-0.04098499905923988,72.93285759702198
3.7,-0.08603005193212705,-0.03461868927386382,72.78637390374693
3.71,-0.0877839472548622,-0.04503537567859724,72.67422232608322
3.72,-0.08371134286139247,-0.027089400063127725,72.56207074841952
3.73,-0.08371134286139247,-0.016672713658394303,72.4384751322187
3.74,-0.037307434407332224,0.010536994621149978,72.29199143894365
3.75,-0.011207093841883863,0.011689948361808634,72.12261966859438
3.76,0.04099358728901286,0.056264142544142415,71.97842478302675
3.77,-0.006569675700414678,0.0053236385764325765,71.8319410897517
3.78,-0.03846678894269952,-0.003358604374962172,71.70834547355088
3.79,-0.0866245927194949,-0.026517936035149087,71.59619389588717
3.8,-0.1179271651744119,-0.059512464387389406,71.46115424114923
3.81,-0.12024587424514649,-0.0641443307194268,71.33755862494841
3.82,-0.12488329238661568,-0.05834948496202937,71.2139630087476
3.83,-0.12084041503251433,-0.06819470733878416,71.06747931547254
3.84,-0.11736235142641245,-0.05777802093405073,70.93472846844203
3.85,-0.12488329238661568,-0.0739795274114802,70.7996888137041
3.86,-0.11620299689104514,-0.06356284100674678,70.66464915896616
3.87,-0.11040622421420866,-0.07109213021748287,70.51816546569111
3.88,-0.14750556934596215,-0.04330093222525857,70.37168177241607
3.89,-0.09182682460896353,0.005905128289112595,70.27097423328946
3.9,0.2950111386919243,0.07421011815961193,70.15882265562576
3.91,1.0721651288998018,0.08057642794498798,70.05811511649917
3.92,1.152220045918882,-0.15791455973143034,69.93451950029835
3.93,0.24976658477323135,-0.2516948144281353,69.74454846058227
3.94,0.02300872847113557,-0.09192550302694971,69.54084457462166
3.95,0.006748037936625032,-0.03114980236718647,69.38520565051691
3.96,-0.042539393336169254,-0.03520017898654384,69.26161003431609
3.97,-0.06572648404351518,-0.03520017898654384,69.14945845665238
3.98,-0.07791457018455598,-0.02303902344377036,69.03730687898867
3.99,-0.07559586111382138,-0.02303902344377036,68.94575457069178
4.0,-0.07675521564918869,-0.010306403873018247,68.84504703156517
4.01,-0.07036390218498437,-0.012622337039036938,68.72145141536436
4.02,-0.06688583857888247,-0.001624160921623498,68.58641176062642
4.03,-0.07095844297235221,-0.007408980994319537,68.40788475944746
4.04,-0.062248420437413285,0.007058082029771251,68.24995702763529
4.05,-0.052973584154474916,0.0024262156977338674,68.09431810353055
4.06,-0.0454229161549033,0.012271438074488652,67.93639037171839
4.07,-0.03558326612396547,0.013424391815147308,67.75786337053943
4.08,-0.02339517998292467,0.033686300596635514,67.58849160019015
4.09,-0.01236644837725116,0.03311483656865687,67.44200790691511
4.1,0.007342578723992876,0.06031451916349978,67.29552421364005
4.11,0.028805501147972052,0.06321194204219849,67.20626071305057
4.12,0.05490584171342041,0.09678796010711882,67.35274440632563
4.13,0.09028101856180715,0.11183651284388962,68.1492494885087
4.14,0.13377167715776495,0.14714697436214863,70.32819442597504
4.15,0.19408784003623275,0.16972481630965555,74.72728283964132
4.16,0.2659975482683735,0.20213785494921585,81.78825461704012
4.17,0.347211819822821,0.22992905294144014,89.17423708889294
4.18,0.42955571887326743,0.2600261584149818,94.7543502795893
4.19,0.5038138632155111,0.2611891378403418,99.00924380768797
4.2,0.5554200035590401,0.27160582424507523,102.36463590676954
4.21,0.5623761307712438,0.23802980618015487,104.52069276716165
4.22,0.510769990427715,0.21488050020466934,105.00363119342782
4.23,0.3808331013484726,0.14251510803011125,104.01486626382125
4.24,0.21846401231831436,0.08867718118370271,101.7031704793244
4.25,0.09551297749064416,0.03426779030931553,98.8513160758758
4.26,0.011415183117462608,0.013424391815147308,96.26954098190308
4.27,-0.043104207084168705,-0.019570136537093014,94.02422062092148
4.28,-0.06572648404351518,-0.007408980994319537,91.87960779906649
4.29,-0.08371134286139247,-0.029405333229146416,89.69150763077046
4.3,-0.08950811553822895,-0.02362051315645038,87.45763130832597
4.31,-0.09242136539633138,-0.03751611215256253,85.37023867915653
4.32,-0.0889433017902295,-0.02303902344377036,83.63990005234503
4.33,-0.08082782004265841,-0.029405333229146416,82.29408112038053
4.34,-0.08487069739675976,-0.019570136537093014,81.30531619077395
4.35,-0.08314652911339301,-0.03461868927386382,80.60951864771748
4.36,-0.07963873846792273,-0.014356780492375612,80.18380041413687
4.37,-0.08198717457802572,-0.032302756107845124,80.0144286437876
4.38,-0.07847938393255544,-0.012040847326356921,80.08309287501027
4.39,-0.07847938393255544,-0.02535495660978905,80.30739603033769
4.4,-0.08082782004265841,-0.010306403873018247,80.56603130127644
4.41,-0.08430588364876031,-0.03172126639516511,80.71022618684407
4.42,-0.08834876100286165,-0.019570136537093014,80.30739603033769
4.43,-0.09242136539633138,-0.030568312654506453,79.47655883254328
4.44,-0.09530488821506543,-0.018407157111732977,78.84713671300204
4.45,-0.09821813807316786,-0.0340371995611838,78.53357005708516
4.46,-0.09937749260853515,-0.019570136537093014,78.51068198001093
4.47,-0.09762359728580002,-0.03461868927386382,78.65716567328597
4.48,-0.09705878353780056,-0.020141600565071652,78.78076128948679
4.49,-0.10517426528537163,-0.03983204531858122,78.80364936656102
4.5,-0.10805778810410568,-0.024773466897109034,78.74642917387546
4.51,-0.10805778810410568,-0.039250555605901204,78.75787321241256
4.52,-0.11040622421420866,-0.02535495660978905,78.91580094422473
4.53,-0.10749297435610623,-0.03577164301452247,79.1950354845303
4.54,-0.1190865197097792,-0.029405333229146416,79.5200461789843
4.55,-0.11444910156831001,-0.04271944251257855,79.83590164260862
4.56,-0.11968106049714704,-0.030568312654506453,80.11513618291418
4.57,-0.1190865197097792,-0.0444639116506186,80.29595199180058
4.58,-0.11620299689104514,-0.02593644632246907,80.36232741531583
4.59,-0.11968106049714704,-0.04908575229795461,80.36232741531583
4.6,-0.11852170596177974,-0.03172126639516511,80.35088337677871
4.61,-0.12140522878051378,-0.04908575229795461,80.27306391472635
4.62,-0.12372393785124838,-0.03114980236718647,80.09453691354739
4.63,-0.12372393785124838,-0.05024873172331464,79.84734568114574
4.64,-0.11504364235567785,-0.02883386920116778,79.54293425605853
4.65,-0.12140522878051378,-0.043882421937938586,79.17214740745607
4.66,-0.12140522878051378,-0.027670889775807745,78.78076128948679
4.67,-0.12199976956788162,-0.04214797848459991,78.33215497883197
4.68,-0.12431847863861623,-0.030568312654506453,77.83777251402867
4.69,-0.12024587424514649,-0.039250555605901204,77.32050197215116
4.7,-0.12779654224471812,-0.03751611215256253,76.82611950734787
4.71,-0.12488329238661568,-0.04908575229795461,76.38895723523015
4.72,-0.11852170596177974,-0.029405333229146416,75.99528230955346
4.73,-0.11736235142641245,-0.04561686539127726,75.60389619158418
4.74,-0.12488329238661568,-0.03172126639516511,75.22166530444461
4.75,-0.12199976956788162,-0.04561686539127726,74.88521057145348
4.76,-0.12140522878051378,-0.02825237948848776,74.58079914636627
4.77,-0.1179271651744119,-0.04793279855729595,74.32445268313494
4.78,-0.1266371877093508,-0.0340371995611838,74.13219283571144
4.79,-0.1266371877093508,-0.04851428826997597,73.95366583453247
4.8,-0.12720200145735028,-0.0340371995611838,73.79573810272032
4.81,-0.13127460585082,-0.051983175176653316,73.67214248651949
4.82,-0.12315912410324892,-0.03577164301452247,73.53710283178155
4.83,-0.12836135599271756,-0.05256466488933333,73.38146390767682
4.84,-0.1301152513154527,-0.03288424582052515,73.22353617586465
4.85,-0.1324339603861873,-0.05371761862999199,73.0656084440525
4.86,-0.1335933149215546,-0.03983204531858122,72.92141355848487
4.87,-0.12720200145735028,-0.051983175176653316,72.7634858266727
4.88,-0.12372393785124838,-0.03172126639516511,72.63989021047189
4.89,-0.12431847863861623,-0.047351308844615934,72.55062670988241
4.9,-0.12199976956788162,-0.020141600565071652,72.46136320929293
4.91,-0.12779654224471812,-0.026517936035149087,72.3377675930921
4.92,-0.08371134286139247,0.008792525483109924,72.20272793835417
4.93,-0.052408770406475465,0.008792525483109924,72.044800206542
4.94,0.001545806047156395,0.06668082894887584,71.89831651326696
4.95,-0.04601745694227114,0.009374015195789943,71.76327685852903
4.96,-0.07675521564918869,-0.0004611814962634624,71.63052601149852
4.97,-0.13475266945692188,-0.03288424582052515,71.50693039529769
4.98,-0.1648958873764716,-0.049667242010634625,71.36044670202264
4.99,-0.1747652644467778,-0.06646026388544549,71.20251897021048
5.0,-0.1747652644467778,-0.05429910834267201,71.06747931547254
5.01,-0.16780913723457402,-0.06587877417276547,70.95532773780883
5.02,-0.1724465553760432,-0.051983175176653316,70.84317616014512
5.03,-0.17824332805287968,-0.0739795274114802,70.7081365054072
5.04,-0.17128720084067592,-0.05314615460201335,70.55249758130245
5.05,-0.16780913723457402,-0.06934766107944282,70.3945698494903
5.06,-0.20202495954759345,-0.03808757618054116,70.25953019475236
5.07,-0.1648958873764716,-0.00682749128163952,70.11304650147731
5.08,0.20743528071264083,0.08752422744304406,69.98029565444679
5.09,0.9451712167180303,0.09910389327313751,69.84525599970887
5.1,1.0704409606164351,-0.14171305325400088,69.71021634497093
5.11,0.17958104482445733,-0.2916371422784317,69.575176690233
5.12,-0.04890097976100519,-0.10060774597834446,69.47446915110639
5.13,-0.08139263379065786,-0.041566488771919895,69.36231757344268
5.14,-0.10749297435610623,-0.027670889775807745,69.22727791870476
5.15,-0.13127460585082,-0.03866906589322119,69.0807942254297
5.16,-0.14810011013333,-0.018407157111732977,68.92515530132496
5.17,-0.15505623734553375,-0.03288424582052515,68.80155968512415
5.18,-0.14518686027522756,-0.009724914160338228,68.68940810746044
5.19,-0.14810011013333,-0.021304579990431685,68.58641176062642
5.2,-0.1457814010625954,0.0024262156977338674,68.48570422149982
5.21,-0.1423033374564935,-0.009724914160338228,68.39644072091033
5.22,-0.13531748320492135,0.012852927787168669,68.27284510470952
5.23,-0.11444910156831001,0.008792525483109924,68.12636141143447
5.24,-0.1179271651744119,0.0261670370706008,67.95927844879262
5.25,-0.11272493328494326,0.015740324981166,67.7349752934652
5.26,-0.09821813807316786,0.04468447671404895,67.53127140750459
5.27,-0.0889433017902295,0.03426779030931553,67.37563248339985
5.28,-0.07152325672035166,0.061477498588859814,67.29552421364005
5.29,-0.04949552054837303,0.06668082894887584,67.25203686719902
5.3,-0.02514907530565981,0.1060516927711936,67.30696825217717
5.31,0.008501933259360172,0.10315426989249488,67.77846263990624
5.32,0.047949714501216635,0.1535132841475247,69.1609024951895
5.33,0.10478781377358254,0.15930812990492213,72.26910336186943
5.34,0.1720601038642541,0.21719643337068803,77.93848005315527
5.35,0.25383918916670106,0.22413420718404273,85.35879464061942
5.36,0.32690825193420914,0.2652395144596992,91.75601218286566
5.37,0.40173121002445233,0.25655727150830443,96.64032783050554
5.38,0.4568154139740831,0.27681918028979263,100.42372697087515
5.39,0.4632067274382874,0.23687685243949622,103.12909768104869
5.4,0.39361572827688124,0.21429901049198932,104.3742090738866
5.41,0.2793449889447816,0.14251510803011125,103.93704680176889
5.42,0.12274294555209143,0.1060516927711936,102.12888871290501
5.43,-0.006569675700414678,0.04642894585208901,99.24499100155249
5.44,-0.08487069739675976,0.03253334685597686,96.43891275225235
5.45,-0.13823073306302378,-0.001624160921623498,93.95784519740623
5.46,-0.1724465553760432,0.003007705410413885,91.71252483642463
5.47,-0.18404010072971616,-0.01783569308375434,89.42142832129458
5.48,-0.19215558247728726,-0.004521583800322207,87.09828849826062
5.49,-0.19738754140612427,-0.032302756107845124,84.9422316378685
5.5,-0.19447429154802184,-0.001624160921623498,83.05625408695226
5.51,-0.2003007912642267,-0.03345570984850378,81.54106338463848
5.52,-0.2037788548703286,-0.007990470706999556,80.37377145385294
5.53,-0.19506883233538969,-0.02593644632246907,79.57726637166986
5.54,-0.19390947780002238,-0.003358604374962172,79.07143986832946
5.55,-0.19563364608338912,-0.021304579990431685,78.80364936656102
5.56,-0.19970625047685886,-0.003940094087642189,78.6800537503602
5.57,-0.20318431408296075,-0.022457533731090343,78.59994548060041
5.58,-0.2026195003349613,-0.009143424447658212,78.62283355767464
5.59,-0.20609756394106318,-0.029405333229146416,78.69149778889731
5.6,-0.20957562754716508,-0.007990470706999556,78.700653019727
5.61,-0.21245915036589913,-0.019570136537093014,78.51068198001093
5.62,-0.22348788197157263,-0.013203826751716956,78.10785182350455
5.63,-0.21477785943663372,-0.02362051315645038,77.60202532016415
5.64,-0.2205746321134702,-0.003940094087642189,77.19690635595033
5.65,-0.23335725904187885,-0.029986822941826436,77.02982339330849
5.66,-0.24087820000208207,-0.018988646824412994,77.1534190095093
5.67,-0.24958822253702098,-0.04330093222525857,77.50131778103754
5.68,-0.2397188454667148,-0.014356780492375612,77.8812598604697
5.69,-0.24551561814355127,-0.04214797848459991,78.16278320848268
5.7,-0.24958822253702098,-0.02535495660978905,78.3870863638101
5.71,-0.2652543722841637,-0.04214797848459991,78.62283355767464
5.72,-0.2698917904256329,-0.029986822941826436,78.94784425212865
5.73,-0.2594575996073272,-0.03983204531858122,79.3987393704909
5.74,-0.2652543722841637,-0.027089400063127725,79.87938898904966
5.75,-0.2687324358902656,-0.041566488771919895,80.28450795326346
5.76,-0.26581918603216315,-0.024773466897109034,80.5316991856651
5.77,-0.26581918603216315,-0.03577164301452247,80.60951864771748
5.78,-0.27336985403173475,-0.024773466897109034,80.49736707005377
5.79,-0.27221049949636744,-0.04271944251257855,80.26161987618923
5.8,-0.2780072721732039,-0.03114980236718647,79.99154056671337
5.81,-0.2780072721732039,-0.0444639116506186,79.66652987225935
5.82,-0.27277531324436693,-0.024202002869130396,79.35296321634245
5.83,-0.27568856310246936,-0.049667242010634625,79.02795252188844
5.84,-0.2710511449610002,-0.02303902344377036,78.52212601854804
5.85,-0.2716159587089996,-0.043882421937938586,77.83777251402867
5.86,-0.2716159587089996,-0.01493827020505563,77.20835039448745
5.87,-0.2640950177487964,-0.027089400063127725,76.73685600675839
5.88,-0.23683532264798074,0.0053236385764325765,76.31113777317778
5.89,-0.19738754140612427,0.00995550490846996,75.88313073188975
5.9,-0.13707137852765647,0.06263045232951847,75.43452442123491
5.91,-0.17072238709267645,0.016903304406526036,74.98591811058009
5.92,-0.22232852743620535,0.004742148863752559,74.61513126197761
5.93,-0.2710511449610002,-0.024773466897109034,74.33589672167206
5.94,-0.29831084006181585,-0.032302756107845124,74.22374514400835
5.95,-0.29539759020371337,-0.05371761862999199,74.10930475863721
5.96,-0.30351307195128446,-0.043882421937938586,73.94222179599537
5.97,-0.30119436288054985,-0.0566150415086907,73.74080671774217
5.98,-0.29831084006181585,-0.043882421937938586,73.54854687031867
5.99,-0.28903600377887745,-0.05371761862999199,73.39290794621394
6.0,-0.3052669672740196,-0.04851428826997597,73.28075636855023
6.01,-0.28844146299150963,-0.06008392841536805,73.22353617586465
6.02,-0.31106373995085607,-0.040403509346559854,73.14571671381229
6.03,-0.3522356894760793,-0.010306403873018247,73.02212109761146
6.04,-0.05529229322520951,0.08752422744304406,72.82986125018796
6.05,0.6093448529733035,0.1708777700503142,72.68566636462035
6.06,1.098860010252618,-0.03751611215256253,72.57351478695664
6.07,0.26659208905574133,-0.23259588507200712,72.47051844012262
6.08,-0.15330234202279863,-0.15039529620539563,72.35836686245891
6.09,-0.184634641517084,-0.029986822941826436,72.2576593233323
6.1,-0.21593721397200102,-0.009724914160338228,72.12261966859438
6.11,-0.2484288680016537,-0.03345570984850378,71.97842478302675
6.12,-0.2559795360012253,-0.007990470706999556,71.88687247472984
6.13,-0.25770370428459205,-0.019570136537093014,71.75412162769933
6.14,-0.2687324358902656,0.003007705410413885,71.50693039529769
6.15,-0.2484288680016537,-0.005674537540980864,71.28262723997027
6.16,-0.254820181465858,0.0053236385764325765,71.113255469621
6.17,-0.23683532264798074,0.0006917722443951935,70.98965985342018
6.18,-0.2350814273252456,0.017484794119206053,70.86606423721935
6.19,-0.22000981836547073,0.011108458649128615,70.75391265955564
6.2,-0.2362407818606129,0.027901480523939474,70.61887300481771
6.21,-0.21189433661789966,0.019219237572544727,70.45179004217586
6.22,-0.19738754140612427,0.04526596642672897,70.28241827182659
6.23,-0.18519945526508347,0.04295003326071028,70.11304650147731
6.24,-0.15737494641626837,0.07421011815961193,69.94596353883546
6.25,-0.15562105109353322,0.07131269528091322,69.83381196117175
6.26,-0.1289558967800854,0.10083833672647619,69.77659176848618
6.27,-0.09066747007359624,0.11241800255656965,69.900187384687
6.28,-0.047176811477638435,0.15582921731354338,70.3945698494903
6.29,-0.00309161209431279,0.16451146026493815,71.78616493560325
6.3,0.06302132346099149,0.20561676754059457,74.87376653291638
6.31,0.14595976329880575,0.23571387301413618,80.38521549239006
6.32,0.22714430781388487,0.2785536237431313,87.10973253679774
6.33,0.3019672659041281,0.2837669797878487,92.76766518954646
6.34,0.347211819822821,0.2982340428119395,97.25830591150965
6.35,0.37155826506553424,0.2704528705044166,100.96159678211947
6.36,0.3181982293992702,0.24266167251219226,103.47699645257693
6.37,0.1888856081467641,0.16451146026493815,104.40854118949794
6.38,0.03516708757280798,0.12283468896130308,103.7676750314196
6.39,-0.08487069739675976,0.05511118880348376,101.75810186430255
6.4,-0.16840367802194187,0.03658372347533422,98.91769149939105
6.41,-0.21129979583053182,0.003589195123093903,96.24665290482885
6.42,-0.2397188454667148,0.008792525483109924,93.90062500472067
6.43,-0.2594575996073272,-0.01493827020505563,91.76745622140278
6.44,-0.25886305881995936,-0.003940094087642189,89.60224413018098
6.45,-0.25654434974922474,-0.018407157111732977,87.40041111564041
6.46,-0.2617763086780618,-0.009724914160338228,85.3359065635452
6.47,-0.24958822253702098,-0.024202002869130396,83.47281708970318
6.48,-0.25190693160775557,-0.004521583800322207,81.98966969529332
6.49,-0.24899368174965314,-0.01493827020505563,80.91393007280469
6.5,-0.24611015893091912,-0.0010426712089434801,80.1265802214513
6.51,-0.23855949093134748,-0.013775290779695594,79.62304252581832
6.52,-0.24611015893091912,0.0012732619570752113,79.3987393704909
6.53,-0.23799467718334802,-0.012622337039036938,79.3872953319538
6.54,-0.23567596811261343,0.0064866180017926125,79.48800287108038
6.55,-0.24087820000208207,-0.020141600565071652,79.53149021752142
6.56,-0.24551561814355127,-0.008571960419679572,79.43078267839482
6.57,-0.2397188454667148,-0.015519759917735647,79.08288390686658
6.58,-0.2449508043955518,-0.0004611814962634624,78.53357005708516
6.59,-0.24783432721428586,-0.018407157111732977,78.03918759228186
6.6,-0.2414727407894499,-0.002205650634303516,77.73706497490208
6.61,-0.24783432721428586,-0.02883386920116778,77.69128882075363
6.62,-0.2472695134662864,-0.009143424447658212,77.8812598604697
6.63,-0.23740013639598018,-0.026517936035149087,78.24060267053505
6.64,-0.24263209532481722,-0.01493827020505563,78.6800537503602
6.65,-0.24435626360818397,-0.026517936035149087,79.11721602247792
6.66,-0.25247174535575506,-0.019570136537093014,79.56582233313276
6.67,-0.25247174535575506,-0.03461868927386382,80.08309287501027
6.68,-0.2397188454667148,-0.010306403873018247,80.60951864771748
6.69,-0.2449508043955518,-0.032302756107845124,81.09245707398365
6.7,-0.24899368174965314,-0.013775290779695594,81.50902007673457
6.71,-0.24611015893091912,-0.030568312654506453,81.81114269411435
6.72,-0.2362407818606129,-0.016672713658394303,81.98966969529332
6.73,-0.23915403171871533,-0.021304579990431685,81.98966969529332
6.74,-0.23103854997114426,0.0064866180017926125,81.8775181176296
6.75,-0.1770839735175124,0.014005881527827325,81.65321496230219
6.76,-0.15505623734553375,0.03716521318801424,81.32820426784818
6.77,-0.11040622421420866,0.056264142544142415,80.90248603426757
6.78,-0.15678040562890053,0.02848297023661949,80.4309916465385
6.79,-0.19622818687075697,-0.002777114662282154,79.913721104661
6.8,-0.23683532264798074,-0.003358604374962172,79.31863110073111
6.81,-0.26118176789069397,-0.04851428826997597,78.73498513533835
6.82,-0.27568856310246936,-0.04271944251257855,78.12845109287134
6.83,-0.2687324358902656,-0.05083022143599466,77.52191705040435
6.84,-0.2681378951028977,-0.03983204531858122,77.00693531623426
6.85,-0.26641372681953096,-0.05314615460201335,76.52399688996809
6.86,-0.2623411224260612,-0.041566488771919895,76.09827865638748
6.87,-0.2536310998911223,-0.05777802093405073,75.75037988485924
6.88,-0.2530662861431229,-0.04561686539127726,75.44596845977203
6.89,-0.2553849952138575,-0.057196531221370715,75.18733318883328
6.9,-0.3000350083451826,0.018637747859864707,74.98591811058009
6.91,-0.026873243589026558,0.07189418499359324,74.83943441730503
6.92,0.6093448529733035,0.15987959393290074,74.6837954932003
6.93,1.2009426634436768,-0.03172126639516511,74.49153564577679
6.94,0.4191215280549618,-0.18512426801097465,74.2786765289865
6.95,-0.09126201086096408,-0.17412609189356118,74.08870548927041
6.96,-0.1167678106390446,-0.01783569308375434,73.95366583453247
6.97,-0.15214298748743132,-0.030568312654506453,73.86440233394299
6.98,-0.18695335058781862,-0.019570136537093014,73.79573810272032
6.99,-0.2003007912642267,-0.03172126639516511,73.70647460213084
7.0,-0.19854689594149158,-0.007408980994319537,73.61721110154134
7.01,-0.19390947780002238,-0.016672713658394303,73.53710283178155
7.02,-0.18404010072971616,0.0024262156977338674,73.44783933119207
7.03,-0.17128720084067592,-0.007990470706999556,73.35857583060259
7.04,-0.17420045069877835,0.0053236385764325765,73.23498021440177
7.05,-0.15273752827479917,0.004742148863752559,73.07705248258961
7.06,-0.15389688281016647,0.014587371240507343,72.89852548141064
7.07,-0.14518686027522756,0.009374015195789943,72.7520417881356
7.08,-0.13939008759839108,0.021535170738563418,72.63989021047189
7.09,-0.12488329238661568,0.023269614191902092,72.53918267134529
7.1,-0.1156084561036773,0.03948114635403293,72.41558705514447
7.11,-0.09705878353780056,0.043531522973390295,72.23477124625808
7.12,-0.08314652911339301,0.06957825182757454,72.12261966859438
7.13,-0.056451647760576804,0.06552787520821718,72.20272793835417
7.14,-0.02339517998292467,0.09968538298581753,72.68566636462035
7.15,0.01777676954229854,0.11010206939055096,74.08870548927041
7.16,0.06593457331909393,0.15004439724084737,77.19690635595033
7.17,0.1476839315821725,0.1731937032163329,82.74268743103536
7.18,0.22134753513704838,0.2137175207793093,89.39854024422036
7.19,0.30776403858096457,0.22298125344338407,95.148025205266
7.2,0.3825869966712077,0.2588732046743231,99.99571992958711
7.21,0.4411492642269404,0.24497760567821095,103.93704680176889
7.22,0.45277253661998174,0.2333979398481175,106.5188218957416
7.23,0.40693344191392095,0.18708930221244505,107.46181067119973
7.24,0.2642733799850067,0.1315169319126978,106.88960874434407
7.25,0.1198594227333574,0.07652605132563062,105.14782607899545
7.26,-0.01236644837725116,0.03484928002199555,102.63471521624541
7.27,-0.0877839472548622,-0.002205650634303516,100.2772432776001
7.28,-0.1324339603861873,-0.007408980994319537,98.14407449428221
7.29,-0.15678040562890053,-0.02593644632246907,96.09101398072411
7.3,-0.17072238709267645,-0.02072309027775167,93.91206904325777
7.31,-0.17420045069877835,-0.0340371995611838,91.64386060520195
7.32,-0.179402682588247,-0.02303902344377036,89.57935605310675
7.33,-0.17651915976951293,-0.03866906589322119,87.86275027253977
7.34,-0.1747652644467778,-0.027089400063127725,86.53753060994208
7.35,-0.16549042816383944,-0.03577164301452247,85.60598587302107
7.36,-0.15969365548700296,-0.02593644632246907,84.99945183055407
7.37,-0.16317171909310485,-0.03288424582052515,84.69504040546686
7.38,-0.15562105109353322,-0.019570136537093014,84.6286649819516
7.39,-0.15041881920406458,-0.02883386920116778,84.71792848254108
7.4,-0.1614178237703697,-0.024773466897109034,84.88730025289036
7.41,-0.1590991146996351,-0.0340371995611838,84.96511971494273
7.42,-0.15737494641626837,-0.02362051315645038,84.91018832996458
7.43,-0.15505623734553375,-0.03172126639516511,84.55084551989924
7.44,-0.1590991146996351,-0.027670889775807745,83.89853532328378
7.45,-0.16605524191183887,-0.03577164301452247,83.12491831817493
7.46,-0.16605524191183887,-0.029405333229146416,82.42912077511846
7.47,-0.16201236455773754,-0.03520017898654384,81.9576263873894
7.48,-0.17999722337561483,-0.03520017898654384,81.73332323206198
7.49,-0.17128720084067592,-0.04619835510395728,81.71043515498776
7.5,-0.1759246189821451,-0.03751611215256253,81.77681057850302
7.51,-0.16780913723457402,-0.03808757618054116,81.85691884826281
7.52,-0.17304109616341104,-0.03114980236718647,81.93473831031517
7.53,-0.17651915976951293,-0.04330093222525857,82.058333926516
7.54,-0.17420045069877835,-0.032302756107845124,82.36045654389578
7.55,-0.16721459644720618,-0.039250555605901204,82.78846358518382
7.56,-0.17651915976951293,-0.03983204531858122,83.23706989583864
7.57,-0.1736059099114105,-0.04851428826997597,83.57352462882977
7.58,-0.17999722337561483,-0.040403509346559854,83.77493970708296
7.59,-0.17767851430488024,-0.04793279855729595,83.87564724620957
7.6,-0.17999722337561483,-0.040403509346559854,83.89853532328378
7.61,-0.17535980523414565,-0.04908575229795461,83.82071586123142
7.62,-0.17651915976951293,-0.041566488771919895,83.68567620649348
7.63,-0.16956303255730917,-0.04561686539127726,83.46137305116606
7.64,-0.17072238709267645,-0.03808757618054116,83.16840566461597
7.65,-0.17128720084067592,-0.047351308844615934,82.85483900869907
7.66,-0.18288074619434888,-0.04851428826997597,82.48405216009661
7.67,-0.1759246189821451,-0.05546208776803204,81.98051446446362
7.68,-0.1736059099114105,-0.03983204531858122,81.37398042199663
7.69,-0.1747652644467778,-0.05603355179601068,80.72167022538119
7.7,-0.17128720084067592,-0.03751611215256253,80.09453691354739
7.71,-0.1724465553760432,-0.047351308844615934,79.55437829459564
7.72,-0.1736059099114105,-0.03693462243988251,79.08288390686658
7.73,-0.16721459644720618,-0.041566488771919895,78.65716567328597
7.74,-0.17304109616341104,-0.04561686539127726,78.27493478614639
7.75,-0.16664978269920672,-0.05024873172331464,77.91559197608105
7.76,-0.16605524191183887,-0.04330093222525857,77.57913724308992
7.77,-0.16664978269920672,-0.0514016854639733,77.29761389507694
7.78,-0.16664978269920672,-0.03808757618054116,77.07331073974952
7.79,-0.16317171909310485,-0.0514016854639733,76.90622777710766
7.8,-0.16780913723457402,-0.04271944251257855,76.80552023798107
7.81,-0.1637365328411043,-0.047351308844615934,76.72541196822128
7.82,-0.16605524191183887,-0.039250555605901204,76.65903654470603
7.83,-0.15621559188090106,-0.03983204531858122,76.54688496704232
7.84,-0.1602584692350024,-0.040403509346559854,76.35462511961882
7.85,-0.15969365548700296,-0.05314615460201335,76.11887792575428
7.86,-0.16085301002237024,-0.03866906589322119,75.96323900164954
7.87,-0.16433107362847213,-0.05371761862999199,75.90601880896398
7.88,-0.16085301002237024,-0.039250555605901204,75.88313073188975
7.89,-0.1602584692350024,-0.04851428826997597,75.8167553083745
7.9,-0.16317171909310485,-0.039250555605901204,75.69315969217367
7.91,-0.16317171909310485,-0.047351308844615934,75.43452442123491
7.92,-0.15562105109353322,-0.03635313272720249,75.16673391946647
7.93,-0.15389688281016647,-0.04271944251257855,74.94014195643163
7.94,-0.15853430095163565,-0.03866906589322119,74.80739110940111
7.95,-0.1590991146996351,-0.049667242010634625,74.75017091671555
7.96,-0.16433107362847213,-0.04851428826997597,74.6837954932003
7.97,-0.15389688281016647,-0.04676981913193592,74.58079914636627
7.98,-0.15330234202279863,-0.03577164301452247,74.3908281066502
7.99,-0.15041881920406458,-0.041566488771919895,74.18941302839701
8.0,-0.15214298748743132,-0.029405333229146416,73.9651098730696
8.01,-0.11040622421420866,0.0006917722443951935,73.75225075627928
8.02,-0.0889433017902295,0.011108458649128615,73.60576706300424
8.03,-0.056451647760576804,0.021535170738563418,73.52565879324445
8.04,-0.052408770406475465,0.030217413689958166,73.44783933119207
8.05,-0.09010265632559679,-0.010887893585698265,73.35857583060259
8.06,-0.12604264692198297,-0.016091223945714286,73.23498021440177
8.07,-0.13939008759839108,-0.03345570984850378,73.0656084440525
8.08,-0.16721459644720618,-0.05024873172331464,72.86419336579931
8.09,-0.17420045069877835,-0.05834948496202937,72.63989021047189
8.1,-0.18347528698171672,-0.06356284100674678,72.47051844012262
8.11,-0.18115657791098214,-0.06877619705146418,72.3377675930921
8.12,-0.1805620371236143,-0.06587877417276547,72.2462152847952
8.13,-0.16956303255730917,-0.06819470733878416,72.17983986127994
8.14,-0.17767851430488024,-0.07224508395814153,72.05624424507911
8.15,-0.16549042816383944,-0.06819470733878416,71.85482916682592
8.16,-0.23855949093134748,-0.0004611814962634624,71.67401335793954
8.17,-0.01236644837725116,0.04179707952005163,71.51837443383481
8.18,0.6139822711147727,0.1014198264391562,71.38333477909687
8.19,1.270533662605083,-0.040403509346559854,71.24829512435893
8.2,0.5937084302655292,-0.1996013567197668,71.113255469621
8.21,-0.0025267983463133376,-0.18570575772365466,71.00110389195729
8.22,-0.03558326612396547,-0.03693462243988251,70.85462019868224
8.23,-0.08023327925529057,-0.0444639116506186,70.6989812745775
8.24,-0.1190865197097792,-0.04271944251257855,70.55249758130245
8.25,-0.13068006506345214,-0.0444639116506186,70.46323408071297
8.26,-0.1411439829211262,-0.03693462243988251,70.38312581095317
8.27,-0.13998462838575892,-0.03808757618054116,70.28241827182659
8.28,-0.14054944213375836,-0.02825237948848776,70.15882265562576
8.29,-0.1266371877093508,-0.020141600565071652,70.03522703942494
8.3,-0.12315912410324892,-0.014356780492375612,69.92307546176123
8.31,-0.11388428782031056,-0.013775290779695594,69.79947984556041
8.32,-0.11156557874957597,0.0018547516697552291,69.65299615228537
8.33,-0.10573907903337108,-0.003358604374962172,69.49735722818062
8.34,-0.09414553367969813,0.00995550490846996,69.32798545783135
8.35,-0.0877839472548622,0.009374015195789943,69.21583388016764
8.36,-0.07616067486182083,0.02385110390458211,69.11512634104105
8.37,-0.061683606689413834,0.027901480523939474,68.98008668630311
8.38,-0.04949552054837303,0.052795255637465066,68.96864264776599
8.39,-0.023989720770292513,0.06031451916349978,69.38520565051691
8.4,0.005588683401257735,0.08520829427702536,70.76535669809276
8.41,0.04447165089511475,0.1014198264391562,73.98799795014382
8.42,0.09316454138054119,0.12978248845935914,79.99154056671337
8.43,0.16278526758131573,0.1581451504795621,87.87190550336946
8.44,0.23873785316755783,0.19750598861717847,94.68568604836662
8.45,0.31415535204516887,0.21776789739866667,100.0643841608098
8.46,0.38722441481267694,0.23166349639477882,104.55502488277298
8.47,0.45625060022608366,0.23744831646747486,107.7524892500424
8.48,0.48351029532689926,0.22761311977542145,109.24708068298938
8.49,0.4666847910443893,0.1911396788318024,108.9770013735135
8.5,0.3773550377423707,0.15062588695352738,107.47325470973684
8.51,0.23873785316755783,0.0985224035604575,104.82281538454144
8.52,0.10130975016748064,0.053948209378123724,102.05106925085263
8.53,-0.00020808927557874546,0.011689948361808634,99.60433381161785
8.54,-0.0697990884369849,-0.003358604374962172,97.27890518087646
8.55,-0.11040622421420866,-0.020141600565071652,94.87794589579012
8.56,-0.12720200145735028,-0.02072309027775167,92.396878340944
8.57,-0.13299877413418676,-0.02593644632246907,90.0394064022987
8.58,-0.14286815120449295,-0.026517936035149087,87.96345781166637
8.59,-0.1359120239922892,-0.032302756107845124,86.35671480105569
8.6,-0.14170879666912567,-0.032302756107845124,85.21231094734438
8.61,-0.12836135599271756,-0.026517936035149087,84.50506936575078
8.62,-0.1324339603861873,-0.029405333229146416,84.16861463275966
8.63,-0.12779654224471812,-0.027089400063127725,84.1113944400741
8.64,-0.12836135599271756,-0.02362051315645038,84.21439078690811
8.65,-0.12836135599271756,-0.02883386920116778,84.42724990369841
8.66,-0.13127460585082,-0.029986822941826436,84.70648444400398
8.67,-0.1266371877093508,-0.02883386920116778,84.98800779201696
8.68,-0.13475266945692188,-0.027670889775807745,85.14593552382912
8.69,-0.1324339603861873,-0.029986822941826436,85.05438321553221
8.7,-0.14054944213375836,-0.029405333229146416,84.6172209434145
8.71,-0.14750556934596215,-0.03520017898654384,83.94431147743224
8.72,-0.1515781737394319,-0.04271944251257855,83.55063655175555
8.73,-0.15098363295206405,-0.03866906589322119,83.39499762765081
8.74,-0.1579397601642678,-0.04271944251257855,83.1020302411007
8.75,-0.1579397601642678,-0.04271944251257855,82.69691127688691
8.76,-0.15969365548700296,-0.04793279855729595,82.32841323599186
8.77,-0.15853430095163565,-0.047351308844615934,82.13615338856836
8.78,-0.1590991146996351,-0.043882421937938586,82.17048550417971
8.79,-0.1590991146996351,-0.04793279855729595,82.3719005824329
8.8,-0.16085301002237024,-0.04619835510395728,82.63053585337165
8.81,-0.1614178237703697,-0.04676981913193592,82.86628304723618
8.82,-0.16085301002237024,-0.047351308844615934,83.06769812548937
8.83,-0.16201236455773754,-0.043882421937938586,83.3034453193539
8.84,-0.16721459644720618,-0.05256466488933333,83.56208059029267
8.85,-0.16721459644720618,-0.05083022143599466,83.8092718226943
8.86,-0.17128720084067592,-0.057196531221370715,83.98779882387326
8.87,-0.16956303255730917,-0.05024873172331464,84.02213093948461
8.88,-0.17188174162804376,-0.05256466488933333,83.92142340035801
8.89,-0.1724465553760432,-0.05024873172331464,83.70856428356771
8.9,-0.1724465553760432,-0.05371761862999199,83.39499762765081
8.91,-0.17535980523414565,-0.05256466488933333,83.02421077904835
8.92,-0.16840367802194187,-0.051983175176653316,82.61909181483453
8.93,-0.16549042816383944,-0.047351308844615934,82.18192954271682
8.94,-0.1648958873764716,-0.05314615460201335,81.63261569293539
8.95,-0.16664978269920672,-0.04908575229795461,81.0375256890055
8.96,-0.16896849176994133,-0.04793279855729595,80.45387972361273
8.97,-0.16780913723457402,-0.047351308844615934,79.87023375821997
8.98,-0.16664978269920672,-0.05314615460201335,79.29574302365688
8.99,-0.16317171909310485,-0.05024873172331464,78.76931725094968
9.0,-0.16896849176994133,-0.05429910834267201,78.30926690175774
9.01,-0.16664978269920672,-0.04793279855729595,77.91559197608105
9.02,-0.16317171909310485,-0.05371761862999199,77.57913724308992
9.03,-0.15678040562890053,-0.04619835510395728,77.32050197215116
9.04,-0.1602584692350024,-0.04619835510395728,77.08475477828662
9.05,-0.15621559188090106,-0.04330093222525857,76.89478373857055
9.06,-0.15562105109353322,-0.04503537567859724,76.70252389114705
9.07,-0.15853430095163565,-0.0444639116506186,76.5354409285052
9.08,-0.15330234202279863,-0.04676981913193592,76.41184531230438
9.09,-0.1515781737394319,-0.041566488771919895,76.29969373464067
9.1,-0.15273752827479917,-0.04851428826997597,76.19898619551407
9.11,-0.1544616965581659,-0.04503537567859724,76.10972269492459
9.12,-0.15273752827479917,-0.04908575229795461,76.01817038662769
9.13,-0.14694075559796269,-0.03635313272720249,75.88313073188975
9.14,-0.14750556934596215,-0.04330093222525857,75.73893584632212
9.15,-0.1446220465272281,-0.03808757618054116,75.59245215304708
9.16,-0.14925946466869727,-0.04503537567859724,75.45741249830914
9.17,-0.14402750573986026,-0.03520017898654384,75.35670495918255
9.18,-0.14866492388132943,-0.04619835510395728,75.25599742005595
9.19,-0.1446220465272281,-0.04098499905923988,75.14384584239224
9.2,-0.14402750573986026,-0.04503537567859724,75.0088061876543
9.21,-0.1423033374564935,-0.04330093222525857,74.85087845584215
9.22,-0.1411439829211262,-0.04214797848459991,74.69523953173741
9.23,-0.1434626919918608,-0.03345570984850378,74.56019987699948
9.24,-0.13763619227565593,-0.03751611215256253,74.42516022226154
9.25,-0.13475266945692188,-0.032302756107845124,74.32445268313494
9.26,-0.13823073306302378,-0.03866906589322119,74.21230110547123
9.27,-0.14054944213375836,-0.029986822941826436,74.10014952780753
9.28,-0.13647683774028863,-0.03866906589322119,73.98799795014382
9.29,-0.13763619227565593,-0.029986822941826436,73.86440233394299
9.3,-0.1324339603861873,-0.03520017898654384,73.71791864066795
9.31,-0.12199976956788162,-0.029405333229146416,73.55999090885578
9.32,-0.1266371877093508,-0.032302756107845124,73.42495125411784
9.33,-0.10517426528537163,0.011689948361808634,73.31279967645415
9.34,-0.06863973390161761,0.011108458649128615,73.23498021440177
9.35,-0.0454229161549033,0.030217413689958166,73.14571671381229
9.36,-0.015279698235353596,0.043531522973390295,72.99923302053725
9.37,-0.06340777497278058,0.005905128289112595,72.81841721165085
9.38,-0.10110166089190191,-0.009724914160338228,72.63989021047189
9.39,-0.12779654224471812,-0.018988646824412994,72.49340651719685
9.4,-0.1544616965581659,-0.059512464387389406,72.38125493953314
9.41,-0.16433107362847213,-0.05024873172331464,72.2576593233323
9.42,-0.16317171909310485,-0.06298135129406676,72.15695178420572
9.43,-0.15678040562890053,-0.0514016854639733,72.06768828361623
9.44,-0.1602584692350024,-0.06587877417276547,71.9326486288783
9.45,-0.15273752827479917,-0.0566150415086907,71.77472089706613
9.46,-0.1515781737394319,-0.06703172791342413,71.59619389588717
9.47,-0.14750556934596215,-0.05314615460201335,71.4062228561711
9.48,-0.17128720084067592,-0.05083022143599466,71.2139630087476
9.49,-0.14054944213375836,0.011689948361808634,71.09036739254677
9.5,0.23005755767198732,0.06031451916349978,71.00110389195729
9.51,1.0048928388091303,0.10025684701379617,70.9118403913678
9.52,1.167291654878657,-0.13649969720928348,70.7996888137041
9.53,0.26079531637890485,-0.20712062024580152,70.64176108189194
9.54,-0.012960989164619003,-0.10582110202306186,70.45179004217586
9.55,-0.024554534518291964,-0.016672713658394303,70.25953019475236
9.56,-0.06516167029551573,-0.02883386920116778,70.0924472321105
9.57,-0.09242136539633138,-0.01783569308375434,69.98029565444679
9.58,-0.10285555621463705,-0.02362051315645038,69.87729930761277
9.59,-0.1034203699626365,-0.006256027253660881,69.81092388409752
9.6,-0.10924686967884137,-0.021304579990431685,69.76514772994906
9.61,-0.10110166089190191,-0.003358604374962172,69.69877230643381
9.62,-0.09530488821506543,-0.010306403873018247,69.59806476730722
9.63,-0.09066747007359624,0.008792525483109924,69.46302511256928
9.64,-0.08430588364876031,0.0053236385764325765,69.28449811139032
9.65,-0.07152325672035166,0.019800727285224744,69.11512634104105
9.66,-0.06688583857888247,0.01805625814718469,68.95719860922888
9.67,-0.056451647760576804,0.03773667721599288,68.82215895449094
9.68,-0.04658227069027059,0.03311483656865687,68.70085214599754
9.69,-0.041944852548801405,0.04989783275876636,68.58641176062642
9.7,-0.024554534518291964,0.05221376592478505,68.52003633711116
9.71,-0.005410321165047382,0.0759445616129506,68.53148037564827
9.72,0.02473289675450232,0.08289236111100667,68.87937914717651
9.73,0.05606519624878771,0.1182028226292657,70.15882265562576
9.74,0.1041932729862147,0.14019917486409256,73.33568775352836
9.75,0.1610313722585806,0.1784070592610503,79.29574302365688
9.76,0.23701368488419108,0.1957715451638398,87.07540042118639
9.77,0.30428597497486265,0.22761311977542145,93.81136150413118
9.78,0.3907024784187788,0.24497760567821095,99.1442834624259
9.79,0.46204737290292014,0.2681369373383979,103.67841153083012
9.8,0.518885472175286,0.25134391546358703,106.97887224493356
9.81,0.5362757902057954,0.24671204913154962,108.60621452491104
9.82,0.4863938181456333,0.19808747832985849,108.48261890871022
9.83,0.3605592604992291,0.15641070702622342,107.10246786113437
9.84,0.21846401231831436,0.0933090475157401,104.63284434482536
9.85,0.13145296808703036,0.10315426989249488,101.95036171172605
9.86,0.06186196892562419,0.07305716441895327,99.46929415687991
9.87,-0.07268261125571895,-0.013203826751716956,97.03171394847482
9.88,-0.09821813807316786,-0.03635313272720249,94.57353447070291
9.89,-0.10401491075000434,-0.018407157111732977,92.04897956941576
9.9,-0.10401491075000434,-0.024773466897109034,89.63428743808488
9.91,-0.10805778810410568,-0.015519759917735647,87.56978288598968
9.92,-0.10749297435610623,-0.024202002869130396,86.00881602952745
9.93,-0.09937749260853515,-0.012040847326356921,84.84152409874191
9.94,-0.09126201086096408,-0.01725420337107432,83.97864359304359
9.95,-0.09358071993169868,-0.0010426712089434801,83.37210955057658
9.96,-0.09298617914433083,-0.01783569308375434,83.01276674051122
9.97,-0.09182682460896353,-0.005093047828300845,82.93265847075143
9.98,-0.09298617914433083,-0.016672713658394303,83.07914216402649
9.99,-0.08834876100286165,0.0012732619570752113,83.37210955057658
