time_s,ECG,NIBP
0.0,0.8796721111495717,77.2083573654406
0.01,0.17107608275070138,76.87230357930157
0.02,-0.0407427083058749,76.44493082953782
0.03,-0.03954014902884199,75.86505541052075
0.04,-0.060344424521511286,75.86505541052075
0.05,-0.08069172748890807,75.68241748327128
0.06,-0.08795518552218684,75.71255274126744
0.07,-0.08809949263543079,75.25504473350753
0.08,-0.09031220170517133,74.85872043137618
0.09,-0.088436209233,74.6139856088619
0.1,-0.08256771996107941,74.7975367257476
0.11,-0.08047526681904216,74.34002871798769
0.12,-0.08191833795148164,74.34002871798769
0.13,-0.08528550392717378,74.70621776212288
0.14,-0.08653616557528801,74.37016397598384
0.15,-0.08646401201866603,74.06515863747724
0.16,-0.09305403685680637,74.0952938954734
0.17,-0.09747945499628746,73.66792114570964
0.18,-0.09954785695278406,73.7291048513382
0.19,-0.0972870455119622,73.2715968435783
0.2,-0.0881475950065121,73.21041313794971
0.21,-0.06712685884397689,72.93554305743926
0.22,-0.036221085424231164,72.47803504967935
0.23,0.00012025592770329073,72.8743593518107
0.24,0.03956420021438265,74.43134768161242
0.25,0.07643466764821158,74.37016397598384
0.26,0.10248210158874435,74.34002871798769
0.27,0.10409353101996845,74.37016397598384
0.28,0.08201454269364428,79.80181593238306
0.29,0.04937708391497117,88.19494187913241
0.3,0.0189042318349573,98.29573244566431
0.31,-0.003174756491366875,105.89438340887847
0.32,-0.015416809931561871,114.19527720236685
0.33,-0.02123719683240114,114.40896357724873
0.34,-0.02400308316957683,114.4701472828773
0.35,-0.023954980798495513,114.37882831925256
0.36,-0.023113189304572478,113.98159082748496
0.37,-0.02179037409983628,113.2492127392146
0.38,-0.021116940904697852,112.45565094531565
0.39,-0.025205642446609736,110.80825684152545
0.4,-0.02941459991622491,108.58007412908192
0.41,-0.032877970634079684,105.40674014312239
0.42,-0.03465775836408839,102.59868201166181
0.43,-0.03958825139992331,99.69930491657648
0.44,-0.04002117273965515,97.77704073227582
0.45,-0.04122373201668806,96.18991714447793
0.46,-0.041849062840745174,95.94609551159989
0.47,-0.04293136619007479,93.56541012990306
0.48,-0.04204147232507044,93.29145323902885
0.49,-0.040526247636008976,92.58921040875465
0.5,-0.03917938124573212,91.76551335685954
0.51,-0.036750211506125646,91.33814060709578
0.52,-0.03708692810369486,90.91076785733202
0.53,-0.03715908166031683,90.48339510756827
0.54,-0.0367742626916663,89.68983331366933
0.55,-0.03776036129883329,88.8350878141418
0.56,-0.03497042377611694,87.67533697610767
0.57,-0.0355717034146334,87.21782896834776
0.58,-0.035836266455580634,86.15031028357461
0.59,-0.03547549867247077,85.69188908617845
0.6,-0.03420078583881588,85.72293753381085
0.61,-0.03458560480746641,85.53938641692514
0.62,-0.037255286402479465,85.57043486455754
0.63,-0.040526247636008976,85.29556478404709
0.64,-0.04312377567440005,85.69188908617845
0.65,-0.039876865626411205,85.66175382818228
0.66,-0.03852999923613435,86.05807813031363
0.67,-0.03862620397829698,85.96675916668889
0.68,-0.03824138500964645,86.08912657794603
0.69,-0.040911066604659506,86.1192618359422
0.7,-0.03747174707234539,86.08912657794603
0.71,-0.036148931867609195,92.25315662261562
0.72,-0.04098322016128148,92.00933498973758
0.73,-0.04406177191048572,91.70432965123096
0.74,-0.042714905520208866,91.30709215946337
0.75,-0.050772052676329345,90.11720606343309
0.76,-0.04641878809347022,89.72088176130173
0.77,-0.022872677449165896,88.4086282540143
0.78,-0.014045892355744357,87.1876937103516
0.79,-0.024339799767146043,86.54663458570596
0.8,-0.03581221527003998,84.86819203428334
0.81,-0.04560104778508784,83.73857645424538
0.82,-0.04932898154388986,82.76237673309696
0.83,-0.05226322617985015,81.60262589506283
0.84,-0.05336958071472042,80.74788039553532
0.85,-0.05704941210244112,79.68036171076217
0.86,-0.10801387426309574,79.22285370300224
0.87,-0.1798066631019603,78.33705975584232
0.88,0.016499113280891486,77.97087071170714
0.89,0.7168936874103974,77.63573011520435
0.9,1.2601137640317022,77.69691382083293
0.91,0.872047885333183,76.87230357930157
0.92,0.18598781778590945,76.84216832130541
0.93,-0.05161384417025238,76.44493082953782
0.94,-0.059863400810698124,76.10979023303504
0.95,-0.07785368759511041,76.04860652740646
0.96,-0.09562751370965679,75.62123377764271
0.97,-0.10159220772374,75.59109851964655
0.98,-0.09995672710697526,75.19386102787895
0.99,-0.09459331273140849,74.82767198374377
1.0,-0.08920584717030106,74.46148293960859
1.01,-0.09086537897260648,74.37016397598384
1.02,-0.09221224536288333,74.03411018984482
1.03,-0.09156286335328556,74.40029923398001
1.04,-0.09177932402315148,74.0952938954734
1.05,-0.09678197061560838,73.60673744008106
1.06,-0.10123143994063014,73.60673744008106
1.07,-0.1018808219502279,73.30173210157446
1.08,-0.10212133380563448,72.81408883581837
1.09,-0.10058205793103236,72.90540779944311
1.1,-0.09639715164695785,72.96659150507168
1.11,-0.08518929918501116,72.84422409381453
1.12,-0.0634951298273375,72.47803504967935
1.13,-0.031723513728128094,72.17302971117273
1.14,0.0016835829878460702,71.74565696140898
1.15,0.03679831387720696,72.11184600554417
1.16,0.07034971770642508,72.47803504967935
1.17,0.09476167103019309,72.50817030767551
1.18,0.096878175357771,72.50817030767551
1.19,0.0694117214703394,74.2477965647267
1.2,0.034826116662873,80.62642617391441
1.21,0.0035355242744767473,90.29984399068255
1.22,-0.019505511473473756,99.516666989327
1.23,-0.0324691004798885,112.9752558483404
1.24,-0.04021358222398042,113.18802903358603
1.25,-0.042714905520208866,113.49394756172889
1.26,-0.04247439366480228,113.6464502309822
1.27,-0.0394198931011387,113.98159082748496
1.28,-0.040093326296277126,112.82183998945084
1.29,-0.040141428667358446,112.18169405444145
1.3,-0.039756609698707916,110.86944054715401
1.31,-0.03980471206978923,108.9462631732171
1.32,-0.04100727134682214,105.74188073962517
1.33,-0.04302757093223742,102.20235770953046
1.34,-0.04370100412737585,98.57060252617477
1.35,-0.043773157683997824,95.85477654797515
1.36,-0.04478330747670547,94.08410184329155
1.37,-0.04071865712033424,92.58921040875465
1.38,-0.040478145264927656,91.27695690146722
1.39,-0.041031322532362795,90.574714071193
1.4,-0.03963635377100462,89.62864960804075
1.41,-0.03749579825788605,88.9273199674028
1.42,-0.03595652238328393,88.0113907622467
1.43,-0.03400837635449062,87.3401963796049
1.44,-0.03222858862448191,86.85163992421258
1.45,-0.033358994344892846,86.02794287231747
1.46,-0.03174756491366875,85.29556478404709
1.47,-0.029679162957172153,84.50200299014816
1.48,-0.02972726532825347,83.67830593825305
1.49,-0.0318918720269127,82.8847441443541
1.5,-0.031603257800424805,82.42632294695794
1.51,-0.02994372599811939,82.8847441443541
1.52,-0.02749050507297226,83.12856577723214
1.53,-0.027009481362159096,83.21988474085688
1.54,-0.02876521790662714,83.28106844648545
1.55,-0.027947477598244765,83.64725749062063
1.56,-0.026287945795939353,85.20424582042236
1.57,-0.026095536311614088,87.12651000472302
1.58,-0.029847521255956758,89.29350901153798
1.59,-0.029919674812578734,89.26246056390556
1.6,-0.030424749708932552,89.201276858277
1.61,-0.03290202181962034,89.38482797516271
1.62,-0.014887683849667393,93.16908582777171
1.63,0.014166148283447647,92.92435100525742
1.64,0.0174130583314365,92.46684299749751
1.65,0.0027899375227163447,91.79564861485571
1.66,-0.016186447868862933,91.70432965123096
1.67,-0.03071336393542045,91.00208682095676
1.68,-0.035114730889360894,89.68983331366933
1.69,-0.040526247636008976,88.89627151977038
1.7,-0.04170475572750122,87.1876937103516
1.71,-0.04839098530780419,85.72293753381085
1.72,-0.10152005416711803,84.47186773215199
1.73,-0.15409594575899674,83.25093318848928
1.74,0.09622879334817323,81.99986338683043
1.75,0.8219973682230735,80.74788039553532
1.76,1.2772622593221914,80.01550230726494
1.77,0.7962385485090285,79.19180525536983
1.78,0.14134881742244793,78.3982434614709
1.79,-0.04564915015616916,78.12337338096044
1.8,-0.04625042979468561,77.7270490788291
1.81,-0.06383184642490672,77.26954107106917
1.82,-0.08278418063094534,76.90335202693399
1.83,-0.08694503572947919,76.90335202693399
1.84,-0.08742605944029236,76.87230357930157
1.85,-0.08759441773907696,76.56729824079497
1.86,-0.08959066613895159,76.50611453516639
1.87,-0.09060081593165924,76.04860652740646
1.88,-0.09086537897260648,76.04860652740646
1.89,-0.09129830031233832,76.04860652740646
1.9,-0.09048056000395595,75.65228222527512
1.91,-0.0847563778452793,75.71255274126744
1.92,-0.08567032289582431,75.56005007201414
1.93,-0.08932610309800434,75.22490947551137
1.94,-0.0930299856712657,75.16372576988279
1.95,-0.09353506056761952,75.25504473350753
1.96,-0.08990333155098015,75.22490947551137
1.97,-0.07972968006728175,74.7975367257476
1.98,-0.05615951823743677,74.73635302011904
1.99,-0.022103039511864837,74.37016397598384
2.0,0.013204100861821323,74.30898027035528
2.01,0.05002646592456894,74.37016397598384
2.02,0.08656021676082866,75.19386102787895
2.03,0.1111886307544626,78.79548095323848
2.04,0.10683536617160348,78.88679991686323
2.05,0.08232720810567283,78.88679991686323
2.06,0.049882158811324996,78.85575146923081
2.07,0.01880802709279467,87.06532629909445
2.08,-0.002044350770955942,96.70860885786642
2.09,-0.01479147910750476,104.82686472410533
2.1,-0.02123719683240114,110.77720839389303
2.11,-0.023810673685251565,114.83633632701249
2.12,-0.02294483100578787,114.04277453311354
2.13,-0.02164606698659233,114.07382298074596
2.14,-0.021862527656458255,114.01263927511738
2.15,-0.023113189304572478,113.2492127392146
2.16,-0.02421954383944275,111.99814293755574
2.17,-0.025638563786341582,110.50325150301883
2.18,-0.02789937522716345,107.2066369161659
2.19,-0.03268556114975442,103.84975181332067
2.2,-0.035499549858011424,100.76773679098588
2.21,-0.03497042377611694,99.0591589815671
2.22,-0.0342488882098972,97.38071643014447
2.23,-0.03547549867247077,96.22096559211035
2.24,-0.03477801429179168,95.30503638695426
2.25,-0.03513878207490155,94.48133933505915
2.26,-0.035836266455580634,94.17633399655253
2.27,-0.033791915684624696,93.0165831585184
2.28,-0.03266150996421376,92.49789144512991
2.29,-0.03049690326555453,92.16183765899089
2.3,-0.028308245381354638,91.27695690146722
2.31,-0.027033532547699756,90.60576251882541
2.32,-0.026504406465805277,89.72088176130173
2.33,-0.025710717342963558,88.86613626177422
2.34,-0.024291697396064727,87.64520171811151
2.35,-0.023666366572007616,86.91282362984114
2.36,-0.024411953323768016,86.05807813031363
2.37,-0.026504406465805277,86.1192618359422
2.38,-0.023714468943088932,85.99689442468505
2.39,-0.02140555513118575,86.1192618359422
2.4,-0.01981817688550231,86.05807813031363
2.41,-0.020804275492669295,86.45531562208123
2.42,-0.022343551367271418,87.55388275448678
2.43,-0.01866371997955072,87.70638542374009
2.44,-0.018447259309684796,87.58401801248294
2.45,-0.0191928460614452,87.61506646011536
2.46,-0.019024487762660594,89.99483865217594
2.47,-0.01943335791685178,94.14528554892013
2.48,-0.025325898374313028,93.62659383553164
2.49,-0.026480355280264618,93.32158849702502
2.5,-0.025903126827288823,92.46684299749751
2.51,-0.028813320277708457,91.76551335685954
2.52,-0.01750926307359913,90.84958415170345
2.53,0.013396510346146587,89.75101701929789
2.54,0.017918133227790317,88.34744454838572
2.55,0.002621579223931738,86.88268837184498
2.56,-0.010005293184913788,85.63070538054987
2.57,-0.02078022430712864,84.56318669577672
2.58,-0.02636009935256133,83.18974948286072
2.59,-0.028212040639192006,82.51855510021892
2.6,-0.029847521255956758,81.5113069314381
2.61,-0.030953875790827035,80.77892884316772
2.62,-0.07487134058806881,79.89404808564404
2.63,-0.15190728787479685,79.64931326312976
2.64,0.0013949687613581724,79.52785904150886
2.65,0.6620329331921561,79.58904274713743
2.66,1.3151188253631874,79.52785904150886
2.67,1.0416327945803636,79.25298896099841
2.68,0.28017226036312676,78.76443250560608
2.69,-0.03393622279786864,78.45942716709946
2.7,-0.0411996808311474,78.0320544173357
2.71,-0.05474049829053794,77.26954107106917
2.72,-0.07910434924322464,76.81111987367301
2.73,-0.08963876851003291,76.47597927717023
2.74,-0.09014384340638673,76.44493082953782
2.75,-0.09141855624004161,76.04860652740646
2.76,-0.08898938650043514,76.07874178540263
2.77,-0.0848766337729826,75.65228222527512
2.78,-0.08629565371988143,75.13267732225039
2.79,-0.09187552876531412,75.22490947551137
2.8,-0.09606043504938863,74.73635302011904
2.81,-0.09995672710697526,74.7975367257476
2.82,-0.10418973576213109,74.06515863747724
2.83,-0.11051519755932418,74.00397493184866
2.84,-0.11347349338082513,74.00397493184866
2.85,-0.11352159575190644,73.63778588771348
2.86,-0.11053924874486483,73.21041313794971
2.87,-0.103492251381452,73.2715968435783
2.88,-0.08249556640445743,72.84422409381453
2.89,-0.05538988030013571,72.6004024609365
2.9,-0.020948582605913244,72.47803504967935
2.91,0.016980136991704652,72.50817030767551
2.92,0.0562557229795994,73.66792114570964
2.93,0.08576652763798695,77.97087071170714
2.94,0.09009574103530542,85.84439175543174
2.95,0.07246622203400299,96.34241981373124
2.96,0.03804897552532119,104.76568101847676
2.97,0.005050748963538211,110.44206779739025
2.98,-0.020563763637262714,113.43276385610031
2.99,-0.033791915684624696,115.20252537114767
3.0,-0.03874645990600027,115.32489278240482
3.01,-0.04033383815168371,115.23357381878009
3.02,-0.040646503563712265,115.59976286291527
3.03,-0.039275585987894754,114.95870373826963
3.04,-0.03788061722653658,114.34777987162016
3.05,-0.04083891304803753,113.2492127392146
3.06,-0.03954014902884199,112.48669939294807
3.07,-0.0428111102623715,110.10601401125123
3.08,-0.04499976814657139,106.84044787203072
3.09,-0.0472365284018526,103.1484221726827
3.1,-0.05185435602565896,100.06549396071166
3.11,-0.05247968684971607,97.80717599027199
3.12,-0.05281640344728529,96.2511008501065
3.13,-0.05132522994376448,94.90871208482291
3.14,-0.05134928112930514,94.11515029092396
3.15,-0.04757324499942181,92.83303204163269
3.16,-0.04730868195847457,92.55816196112224
3.17,-0.04658714639225483,92.22302136461946
3.18,-0.04605802031036035,91.27695690146722
3.19,-0.04497571696103073,91.30709215946337
3.2,-0.04490356340440876,90.54457881319684
3.21,-0.045408638300762576,89.75101701929789
3.22,-0.04444659087913625,88.8350878141418
3.23,-0.04235413773709899,88.0424392098791
3.24,-0.045841559640494425,87.95020705661813
3.25,-0.04588966201157574,88.0424392098791
3.26,-0.042113625881692415,86.88268837184498
3.27,-0.039660404956545284,85.72293753381085
3.28,-0.03946799547222002,85.29556478404709
3.29,-0.038842664648162904,84.9293757399119
3.3,-0.041247783202228716,84.83805677628717
3.31,-0.04242629129372097,84.86819203428334
3.32,-0.04071865712033424,85.63070538054987
3.33,-0.04329213397318466,86.85163992421258
3.34,-0.0482707293801009,86.82150466621641
3.35,-0.049232776801727225,86.88268837184498
3.36,-0.05401896272431819,93.10790212214314
3.37,-0.05466834473391596,93.29145323902885
3.38,-0.05216702143768752,92.49789144512991
3.39,-0.05644813246392467,91.73446490922713
3.4,-0.04509597288873402,91.67328120359856
3.41,-0.015224400447236606,90.84958415170345
3.42,-0.003511473088936089,89.65969805567316
3.43,-0.015585168230346478,88.0113907622467
3.44,-0.030280442595688604,86.790456218584
3.45,-0.040045223925195814,85.23438107841852
3.46,-0.04187311402628583,83.64725749062063
3.47,-0.04555294541400653,82.42632294695794
3.48,-0.04329213397318466,80.80906410116388
3.49,-0.04427823258035164,79.95523179127261
3.5,-0.08812354382097144,79.19180525536983
3.51,-0.15671752498292849,78.4292919091033
3.52,0.002669681595013054,77.63573011520435
3.53,0.6394729211550187,77.60468166757195
3.54,1.1625140531077114,76.68966565205211
3.55,0.8204340411629306,76.90335202693399
3.56,0.1916398463879641,76.81111987367301
3.57,-0.03376786449908403,76.75084935768068
3.58,-0.047428937886177865,75.89610385815317
3.59,-0.06311031085868697,76.04860652740646
3.6,-0.07898409331552135,76.3846603135455
3.61,-0.08884507938719119,76.44493082953782
3.62,-0.09411228902059532,76.3846603135455
3.63,-0.09882632138656432,76.41479557154166
3.64,-0.09820099056250721,76.41479557154166
3.65,-0.09974026643710933,76.47597927717023
3.66,-0.09483382458681507,76.41479557154166
3.67,-0.0878589807800242,75.62123377764271
3.68,-0.0864880632042067,75.56005007201414
3.69,-0.08434750769108812,75.19386102787895
3.7,-0.08227910573459152,75.16372576988279
3.71,-0.08112464882863993,74.06515863747724
3.72,-0.0814854166117498,73.66792114570964
3.73,-0.0794651170263345,73.39396425483544
3.74,-0.07352447419779196,73.21041313794971
3.75,-0.059815298439616804,72.93554305743926
3.76,-0.034513451250844436,72.44789979168318
3.77,-0.0037038825732613545,72.14198126354033
3.78,0.031939974397994016,71.65433799778424
3.79,0.06758383136924939,71.77579221940513
3.8,0.09969216406602802,72.11184600554417
3.81,0.11787486033476557,74.37016397598384
3.82,0.11621532853246015,74.37016397598384
3.83,0.08600703949339353,74.37016397598384
3.84,0.04875175309091406,80.56524246828585
3.85,0.0171244441049486,90.4532598495721
3.86,-0.009139450505450095,99.11942949755942
3.87,-0.02438790213822736,106.01675082013561
3.88,-0.03179566728475007,112.30314827606234
3.89,-0.03405647872557194,112.45565094531565
3.9,-0.03600462475436524,112.27301301806618
3.91,-0.03530714037368616,112.15064560680904
3.92,-0.03641349490855643,111.17444588566063
3.93,-0.037952770783158556,110.13706245888365
3.94,-0.039371790730057386,110.07587875325507
3.95,-0.04011737748181779,108.122566121322
3.96,-0.03932368835897607,105.74188073962517
3.97,-0.037688207742211315,101.74393651213428
3.98,-0.03569195934233669,98.143229776411
3.99,-0.04134398794439135,94.96989579045147
4.0,-0.04122373201668806,92.52802670312607
4.01,-0.04228198418047702,90.60576251882541
4.02,-0.043099724488859396,89.17114160028083
4.03,-0.039443944286679355,87.73652068173625
4.04,-0.03929963717343541,86.790456218584
4.05,-0.036533750836259725,85.72293753381085
4.06,-0.03638944372301577,84.59332195377289
4.07,-0.03831353856626842,83.67830593825305
4.08,-0.03814518026748382,82.85369569672169
4.09,-0.03715908166031683,81.63367434269524
4.1,-0.03915533006019146,80.26023712977923
4.11,-0.04567320134170982,79.55799429950503
4.12,-0.05007456829565026,78.73429724760992
4.13,-0.05233537973647212,78.48956242509563
4.14,-0.053561990199045686,78.0320544173357
4.15,-0.05144548587146777,78.52061087272804
4.16,-0.05524557318689176,78.30692449784615
4.17,-0.053008812931610555,78.48956242509563
4.18,-0.043869362426160456,78.33705975584232
4.19,-0.0380970778964025,78.85575146923081
4.2,-0.015224400447236606,80.62642617391441
4.21,0.002044350770955942,83.61712223262447
4.22,0.0017557365444680446,87.15664526271918
4.23,-0.013300305603983955,87.27901267397633
4.24,-0.030520954451095185,87.24887741598016
4.25,-0.03857810160721566,91.70432965123096
4.26,-0.046178276238063636,91.33814060709578
4.27,-0.04887200901861735,90.17838976906165
4.28,-0.04641878809347022,90.02588709980834
4.29,-0.053850604425533584,88.43876351201045
4.3,-0.11595076549151292,87.03519104109829
4.31,-0.14144502216461055,85.35674848967567
4.32,0.15570737519022082,83.25093318848928
4.33,0.8319545590369058,81.6638096006914
4.34,1.0890857836520822,81.54144218943425
4.35,0.5463467307415905,80.01550230726494
4.36,0.03561980578571471,78.79548095323848
4.37,-0.058973506945693775,77.75718433682525
4.38,-0.054043013909858856,77.2083573654406
4.39,-0.07571313208199185,76.50611453516639
4.4,-0.09069702067382186,75.59109851964655
4.41,-0.09228439891950531,75.28609318113993
4.42,-0.09189957995085478,74.7975367257476
4.43,-0.09110589082801306,74.88885568937233
4.44,-0.09533889948316888,74.70621776212288
4.45,-0.09714273839871825,74.49253138724099
4.46,-0.09586802556506337,74.00397493184866
4.47,-0.09353506056761952,74.40029923398001
4.48,-0.0930299856712657,74.37016397598384
4.49,-0.09329454871221295,74.49253138724099
4.5,-0.09411228902059532,74.40029923398001
4.51,-0.09329454871221295,74.49253138724099
4.52,-0.0909615837147691,74.46148293960859
4.53,-0.08591083475123089,74.37016397598384
4.54,-0.06777624085357466,74.03411018984482
4.55,-0.0441339254671077,74.0952938954734
4.56,-0.016114294312240957,74.00397493184866
4.57,0.018062440341034266,73.2715968435783
4.58,0.05122902520160185,73.21041313794971
4.59,0.08509309444284852,73.2715968435783
4.6,0.11691281291313925,73.24054839594588
4.61,0.12713456676791896,73.76015329897062
4.62,0.11094811889905602,77.54349796194337
4.63,0.07564097852536987,85.66175382818228
4.64,0.038986971761406856,85.63070538054987
4.65,0.009476167103019309,85.69188908617845
4.66,-0.008754631536799565,85.53938641692514
4.67,-0.021766322914295623,85.69188908617845
4.68,-0.02852470605122056,85.69188908617845
4.69,-0.028596859607842536,95.27490112895809
4.7,-0.03230074218110389,103.57579492244646
4.71,-0.03141084831609954,109.73982496711605
4.72,-0.027466453887431602,111.99814293755574
4.73,-0.029919674812578734,112.15064560680904
4.74,-0.029631060586090836,111.2045811436568
4.75,-0.03018423785352597,109.70968970911989
4.76,-0.032926073005161004,108.122566121322
4.77,-0.03384001805570601,104.1858055994597
4.78,-0.030160186667985315,100.98142316586775
4.79,-0.032974175376242316,97.4720353937692
4.8,-0.03201212795461599,94.42015562943057
4.81,-0.030160186667985315,92.95539945288984
4.82,-0.029101934504196354,91.21577319583864
4.83,-0.02943865110176557,90.574714071193
4.84,-0.025734768528504214,89.26246056390556
4.85,-0.025855024456207507,88.37757980638189
4.86,-0.02816393826811069,87.24887741598016
4.87,-0.02712973728986239,86.48545088007738
4.88,-0.0230410357479505,85.17319737278994
4.89,-0.024436004509308676,84.44081928451958
4.9,-0.023882827241873537,83.67830593825305
4.91,-0.02619174105377672,82.45737139459034
4.92,-0.026287945795939353,81.54144218943425
4.93,-0.026119587497154744,81.20630159293148
4.94,-0.02696137899107778,81.45012322580952
4.95,-0.025710717342963558,81.57249063706666
4.96,-0.024339799767146043,82.76237673309696
4.97,-0.011448364317353276,82.79251199109312
4.98,0.0066621783947623065,82.76237673309696
4.99,0.009885037257210497,82.91487940235027
5.0,0.002813988708257003,84.83805677628717
5.01,-0.01570542415804977,87.61506646011536
5.02,-0.029991828369200706,89.72088176130173
5.03,-0.032324793366644546,93.29145323902885
5.04,-0.03436914413760049,95.21371742332951
5.05,-0.03667805794950367,94.02383132729922
5.06,-0.0391312788746508,93.50422642427449
5.07,-0.07451057280495893,92.22302136461946
5.08,-0.12759153929319145,90.574714071193
5.09,0.03141084831609954,90.574714071193
5.1,0.6031796821741656,88.77481729814949
5.11,1.064337113730745,86.91282362984114
5.12,0.7301939930143813,84.86819203428334
5.13,0.12898650805454964,83.76962490187778
5.14,-0.050002414739028285,81.93867968120185
5.15,-0.0378084636699146,80.71774513753915
5.16,-0.053561990199045686,79.98536704926877
5.17,-0.06784839441019663,78.85575146923081
5.18,-0.07003705229439652,78.73429724760992
5.19,-0.06835346930655045,78.09323812296428
5.2,-0.07407765146522709,77.60468166757195
5.21,-0.07802204589389503,77.75718433682525
5.22,-0.07597769512293909,77.2083573654406
5.23,-0.07960942413957846,77.33072477669775
5.24,-0.07679543543132146,77.14717365981203
5.25,-0.07835876249146424,77.29967632906533
5.26,-0.07977778243836307,77.17730891780819
5.27,-0.07708404965780935,77.66586537320052
5.28,-0.07547262022658525,77.2083573654406
5.29,-0.07410170265076775,77.23849262343676
5.3,-0.06931551672817678,76.78098461567684
5.31,-0.06224446817922328,76.5371629827988
5.32,-0.04689981180428338,76.41479557154166
5.33,-0.025061335333365787,76.01847126941031
5.34,0.00933185998977536,75.89610385815317
5.35,0.05134928112930514,75.59109851964655
5.36,0.08182213320931901,75.56005007201414
5.37,0.10592142112105847,77.23849262343676
5.38,0.12660544068602447,82.73224147510079
5.39,0.1190052660551765,82.82356043872552
5.4,0.08586273238014958,82.60987406384365
5.41,0.0490163161318613,82.91487940235027
5.42,0.017821928485627685,91.18563793784247
5.43,-0.0020924531420372585,100.79878523861828
5.44,-0.014983888591830025,108.33625249620388
5.45,-0.022992933376869185,113.18802903358603
5.46,-0.027827221670541476,115.69108182654
5.47,-0.030665261564339134,116.85083266457413
5.48,-0.03181971847029073,116.75860051131315
5.49,-0.030545005636635845,116.48464362043894
5.5,-0.028957627390952406,115.99608716504662
5.51,-0.030136135482444655,114.83633632701249
5.52,-0.032060230325697305,112.82183998945084
5.53,-0.030448800894473212,111.02194321640732
5.54,-0.0324691004798885,107.17650165816976
5.55,-0.03561980578571471,103.84975181332067
5.56,-0.03850594805059369,100.43168300484685
5.57,-0.03619703423869051,97.80717599027199
5.58,-0.03311848248948627,96.49492248298455
5.59,-0.03492232140503563,95.36622009258282
5.6,-0.036221085424231164,94.08410184329155
5.61,-0.03513878207490155,93.32158849702502
5.62,-0.03299822656178297,92.83303204163269
5.63,-0.032372895737725865,92.13170240099473
5.64,-0.03071336393542045,92.07051869536615
5.65,-0.029655111771631493,92.19197291698705
5.66,-0.03148300187272151,92.07051869536615
5.67,-0.03458560480746641,92.25315662261562
5.68,-0.03073741512096111,91.30709215946337
5.69,-0.03359950620029943,90.94090311532818
5.7,-0.034946372590576286,90.48339510756827
5.71,-0.034946372590576286,89.32364426953414
5.72,-0.03415268346773457,86.82150466621641
5.73,-0.034296990580978515,86.9429588878373
5.74,-0.034296990580978515,86.82150466621641
5.75,-0.03458560480746641,86.88268837184498
5.76,-0.03701477454707289,87.15664526271918
5.77,-0.035499549858011424,88.0424392098791
5.78,-0.03824138500964645,90.05602235780451
5.79,-0.03915533006019146,92.95539945288984
5.8,-0.03215643506785994,92.83303204163269
5.81,-0.02424359502498341,92.92435100525742
5.82,-0.006109001127327169,92.86408048926509
5.83,0.011255954833028011,93.0165831585184
5.84,0.010005293184913788,96.9222952327483
5.85,-0.0005291260818944791,95.76254439471417
5.86,-0.01825484982535953,93.99278287966682
5.87,-0.03415268346773457,92.19197291698705
5.88,-0.03797682196869921,89.62864960804075
5.89,-0.038890767019244224,87.67533697610767
5.9,-0.041464243872094644,86.05807813031363
5.91,-0.04514407525981534,84.5321382481443
5.92,-0.09274137144477781,83.12856577723214
5.93,-0.1188369077563919,82.54869035821508
5.94,0.14880468494005195,81.48025848380568
5.95,0.8008323249472943,80.71774513753915
5.96,1.1211941163488608,80.41273979903254
5.97,0.6113570852579894,80.04655075489735
5.98,0.04865554834875143,79.49681059387645
5.99,-0.05336958071472042,79.64931326312976
6.0,-0.03874645990600027,79.55799429950503
6.01,-0.05868489271920588,79.64931326312976
6.02,-0.07212950543643377,79.22285370300224
6.03,-0.07489539177360946,78.82561621123465
6.04,-0.07352447419779196,78.82561621123465
6.05,-0.07766127811078515,78.82561621123465
6.06,-0.07994614073714768,78.76443250560608
6.07,-0.08300064130081126,78.52061087272804
6.08,-0.0845880195464947,78.3982434614709
6.09,-0.08490068495852325,78.52061087272804
6.1,-0.09060081593165924,78.30692449784615
6.11,-0.0921160406207207,78.36810820347473
6.12,-0.08684883098731656,78.06310286496812
6.13,-0.08509309444284852,78.15442182859285
6.14,-0.08112464882863993,77.57454640957579
6.15,-0.07799799470835436,77.66586537320052
6.16,-0.06929146554263611,77.63573011520435
6.17,-0.05370629731228964,76.47597927717023
6.18,-0.025758819714044874,76.35361186591308
6.19,0.006469768910437041,76.47597927717023
6.2,0.03776036129883329,76.41479557154166
6.21,0.07193709595210851,78.12337338096044
6.22,0.1007985186008983,83.15961422486455
6.23,0.11684065935651727,83.34225215211403
6.24,0.10678726380052217,83.18974948286072
6.25,0.07388524198090182,83.25093318848928
6.26,0.03699072336153223,89.84233598292263
6.27,0.010317958596942345,102.11103874590572
6.28,-0.012819281893170791,110.8383920995216
6.29,-0.028644961978923852,116.14858983429993
6.3,-0.030112084296904,119.78034501765562
6.31,-0.032324793366644546,119.9940313925375
6.32,-0.03319063604610824,119.90271242891276
6.33,-0.03559575460017406,120.02416665053366
6.34,-0.03422483702435654,119.53652338477758
6.35,-0.033142533675026925,118.37677254674345
6.36,-0.033791915684624696,116.81978421694173
6.37,-0.0358603176411213,114.9888389962658
6.38,-0.03946799547222002,111.32694855491394
6.39,-0.0391312788746508,107.2988690694269
6.4,-0.040478145264927656,104.06343818820255
6.41,-0.04382126005507914,101.01155842386392
6.42,-0.042113625881692415,98.90665631231379
6.43,-0.04071865712033424,97.44098694613679
6.44,-0.04374910649845717,96.86202471675598
6.45,-0.04127183438776938,96.15978188648177
6.46,-0.04079081067695622,95.48858750383997
6.47,-0.04062245237817161,95.33608483458666
6.48,-0.03848189686505303,94.81647993156193
6.49,-0.03848189686505303,94.08410184329155
6.5,-0.036918569804910255,93.59645857753547
6.51,-0.03658185320734104,93.32158849702502
6.52,-0.03901102294694751,92.03947024773375
6.53,-0.037135030474776176,91.33814060709578
6.54,-0.04028573578060239,90.48339510756827
6.55,-0.040093326296277126,89.75101701929789
6.56,-0.03852999923613435,89.32364426953414
6.57,-0.03879456227708159,89.26246056390556
6.58,-0.03646159727963775,89.56746590241218
6.59,-0.04100727134682214,89.78115227729405
6.6,-0.04370100412737585,89.72088176130173
6.61,-0.040478145264927656,89.75101701929789
6.62,-0.040766759491415554,90.02588709980834
6.63,-0.041800960469663855,91.33814060709578
6.64,-0.04285921263345281,93.56541012990306
6.65,-0.04194526758290781,96.6483383418741
6.66,-0.041464243872094644,96.52597093061695
6.67,-0.04254654722142426,96.55610618861311
6.68,-0.040862964233578186,96.46478722498838
6.69,-0.0417769092841232,98.17427822404342
6.7,-0.040381940522765024,96.52597093061695
6.71,-0.040093326296277126,94.93884734281907
6.72,-0.040261684595061735,92.86408048926509
6.73,-0.03874645990600027,90.17838976906165
6.74,-0.03708692810369486,87.92007179862196
6.75,-0.03865025516383764,86.02794287231747
6.76,-0.036533750836259725,84.86819203428334
6.77,-0.03994901918303318,83.73857645424538
6.78,-0.03860215279275633,82.73224147510079
6.79,-0.039275585987894754,81.99986338683043
6.8,-0.03581221527003998,81.57249063706666
6.81,-0.03460965599300707,81.1451178873029
6.82,-0.03427293939543786,80.71774513753915
6.83,-0.032757714706376395,80.77892884316772
6.84,-0.03256530522205113,80.35155609340396
6.85,-0.032108332696778624,80.74788039553532
6.86,-0.034345092952059834,80.65656143191057
6.87,-0.032541254036510474,80.74788039553532
6.88,-0.0333830455304335,80.62642617391441
6.89,-0.03605272712544656,80.68760987954299
6.9,-0.03646159727963775,80.74788039553532
6.91,-0.03535524274476747,80.35155609340396
6.92,-0.038024924339780525,80.3214208354078
6.93,-0.03759200300004868,80.38169135140012
6.94,-0.04134398794439135,79.98536704926877
6.95,-0.04259464959250558,80.04655075489735
6.96,-0.04293136619007479,79.92418334364021
6.97,-0.03136274594501822,79.68036171076217
6.98,-0.018351054567522163,79.19180525536983
6.99,-0.008225505454905085,78.82561621123465
7.0,-0.0018038389155493608,78.4292919091033
7.01,-0.0007696379373010606,78.48956242509563
7.02,-0.011544569059515909,78.12337338096044
7.03,-0.019746023328880338,78.09323812296428
7.04,-0.01921689724698586,77.63573011520435
7.05,-0.020419456524018765,77.75718433682525
7.06,-0.041800960469663855,77.29967632906533
7.07,-0.10476696421510688,76.84216832130541
7.08,-0.009067296948828121,76.35361186591308
7.09,0.504088797746654,76.10979023303504
7.1,1.1546252642503756,75.65228222527512
7.11,1.0456012401945722,75.62123377764271
7.12,0.32914047412390673,75.13267732225039
7.13,-0.018351054567522163,74.9189909473685
7.14,-0.02075617312158798,74.30898027035528
7.15,-0.03090577341974572,74.40029923398001
7.16,-0.05640003009284335,74.0952938954734
7.17,-0.06852182760533505,74.0952938954734
7.18,-0.07352447419779196,73.60673744008106
7.19,-0.08348166501162442,73.7291048513382
7.2,-0.08600703949339353,73.63778588771348
7.21,-0.09072107185936253,73.2715968435783
7.22,-0.09141855624004161,72.8743593518107
7.23,-0.09413634020613598,72.84422409381453
7.24,-0.0918274263942328,72.53921875530791
7.25,-0.09324644634113163,72.50817030767551
7.26,-0.09175527283761083,71.62328955015184
7.27,-0.09103373727139108,71.77579221940513
7.28,-0.0928616273724811,72.11184600554417
7.29,-0.09019194577746804,71.74565696140898
7.3,-0.08540575985487707,71.59315429215567
7.31,-0.08018665259255425,71.80684066703755
7.32,-0.05952668421312891,71.74565696140898
7.33,-0.03157920661488414,71.6844732557804
7.34,0.0037519849443426708,71.31828421164522
7.35,0.03908317650356949,71.37946791727379
7.36,0.0791284004287653,71.34841946964139
7.37,0.11082786297135273,71.37946791727379
7.38,0.130790346970099,71.25710050601664
7.39,0.12112177038275442,71.47078688089853
7.4,0.09339075345437557,72.41685134405077
7.41,0.05666459313379059,77.69691382083293
7.42,0.02542210311647566,87.09637474672687
7.43,0.0036076778310987216,98.8144241590528
7.44,-0.009740730143966548,98.87560786468137
7.45,-0.017316853589273866,98.96692682830611
7.46,-0.017990286784412293,117.00333533382744
7.47,-0.022487858480515367,121.2149659362002
7.48,-0.023185342861194454,121.15378223057162
7.49,-0.02460436280809328,121.24510119419637
7.5,-0.025734768528504214,115.6600333789076
7.51,-0.027057583733240412,112.0593266431843
7.52,-0.028284194195813978,107.63400966592967
7.53,-0.02813988708257003,103.39224380556075
7.54,-0.03145895068718085,99.7303533642089
7.55,-0.03480206547733233,97.34966798251206
7.56,-0.038289487380727766,96.06846292285704
7.57,-0.03824138500964645,94.14528554892013
7.58,-0.03285391944853903,93.29145323902885
7.59,-0.035884368826661954,92.58921040875465
7.6,-0.03720718403139815,92.16183765899089
7.61,-0.033647608571380744,91.73446490922713
7.62,-0.03299822656178297,91.30709215946337
7.63,-0.03295012419070166,91.39932431272436
7.64,-0.030448800894473212,91.30709215946337
7.65,-0.03131464357393691,91.36827586509195
7.66,-0.030953875790827035,91.30709215946337
7.67,-0.03148300187272151,91.36827586509195
7.68,-0.03280581707745771,90.87971940969962
7.69,-0.03504257733273892,90.574714071193
7.7,-0.0347058607351697,90.14734132142924
7.71,-0.03203617914015665,90.14734132142924
7.72,-0.029534855843928204,90.14734132142924
7.73,-0.03220453743894126,90.17838976906165
7.74,-0.03273366352083574,90.11720606343309
7.75,-0.02840445012351727,90.20852502705782
7.76,-0.02955890702946886,90.08707080543692
7.77,-0.02902978094757438,92.07051869536615
7.78,-0.03035259615231058,94.358971923802
7.79,-0.0287892690921678,96.18991714447793
7.8,-0.028428501309057927,97.59440280502635
7.81,-0.02636009935256133,98.5404672681786
7.82,-0.027803170485000816,98.90665631231379
7.83,-0.02696137899107778,99.02811053393468
7.84,-0.026119587497154744,98.11309451841484
7.85,-0.02636009935256133,97.01452738600928
7.86,-0.024460055694849332,96.2511008501065
7.87,-0.026239843424858036,94.96989579045147
7.88,-0.028284194195813978,93.19922108576787
7.89,-0.024868925849040522,90.91076785733202
7.9,-0.024027134355117486,89.29350901153798
7.91,-0.024411953323768016,87.27901267397633
7.92,-0.027562658629594235,85.99689442468505
7.93,-0.024291697396064727,85.29556478404709
7.94,-0.02438790213822736,84.13581394601296
7.95,-0.02527779600323171,82.57973880584748
7.96,-0.024195492653902095,82.02999864482659
7.97,-0.022487858480515367,81.26748529856005
7.98,-0.0230410357479505,80.68760987954299
7.99,-0.021694169357673647,80.01550230726494
8.0,-0.02061186600834403,80.07668601289352
8.01,-0.024700567550255917,80.01550230726494
8.02,-0.026239843424858036,79.92418334364021
8.03,-0.033743813313543376,79.68036171076217
8.04,-0.03090577341974572,79.55799429950503
8.05,-0.024411953323768016,79.61917800513359
8.06,-0.016426959724269514,79.58904274713743
8.07,-0.007287509218819418,79.34430792462314
8.08,-0.0025494256673097636,79.22285370300224
8.09,-0.006782434322465597,79.31417266662697
8.1,-0.011736978543841176,79.19180525536983
8.11,-0.011352159575190644,78.82561621123465
8.12,-0.008201454269364427,78.64297828398517
8.13,-0.007407765146522709,78.88679991686323
8.14,-0.05413921865202149,78.33705975584232
8.15,-0.10479101540064754,78.55074613072419
8.16,0.13040552800144847,78.09323812296428
8.17,0.8300064130081126,77.69691382083293
8.18,1.3435954290433267,77.23849262343676
8.19,0.9109386523524272,77.29967632906533
8.2,0.19584880385757927,76.84216832130541
8.21,-0.01738900714589584,76.84216832130541
8.22,-0.0060127963851645365,76.44493082953782
8.23,-0.035836266455580634,76.1399254910312
8.24,-0.06486604740315502,75.56005007201414
8.25,-0.07549667141212592,75.71255274126744
8.26,-0.07542451785550394,75.25504473350753
8.27,-0.08047526681904216,74.76648827811519
8.28,-0.08506904325730787,74.70621776212288
8.29,-0.08617539779217813,74.40029923398001
8.3,-0.08704124047164183,74.00397493184866
8.31,-0.08865266990286592,73.66792114570964
8.32,-0.09228439891950531,73.60673744008106
8.33,-0.09428064731937993,73.36291580720302
8.34,-0.09577182082290074,73.24054839594588
8.35,-0.09969216406602802,72.90540779944311
8.36,-0.10277071581523226,72.44789979168318
8.37,-0.1067151102439002,72.47803504967935
8.38,-0.10839869323174627,72.47803504967935
8.39,-0.09690222654331167,72.53921875530791
8.4,-0.07799799470835436,72.14198126354033
8.41,-0.047982115153613,71.74565696140898
8.42,-0.00971667895842589,72.05066229991559
8.43,0.03088172223420506,72.2031649691689
8.44,0.07196114713764917,73.69896959334204
8.45,0.10926453591120995,73.66792114570964
8.46,0.12052049074423797,73.66792114570964
8.47,0.10394922390672451,79.61917800513359
8.48,0.0710231509015635,89.62864960804075
8.49,0.03788061722653658,100.4015477468507
8.5,0.009235655247612728,109.15994954809898
8.51,-0.010678726380052217,120.23785302541553
8.52,-0.019000436577119934,120.32917198904028
8.53,-0.02566261497188224,120.39035569466884
8.54,-0.02684112306337449,120.26890147304795
8.55,-0.02816393826811069,120.36022043667268
8.56,-0.028356347752435954,120.29903673104411
8.57,-0.030136135482444655,119.9940313925375
8.58,-0.02958295821500952,119.475339679149
8.59,-0.03239694692326652,111.02194321640732
8.6,-0.03290202181962034,106.81031261403456
8.61,-0.034176734653275226,102.50736304803706
8.62,-0.034513451250844436,99.66916965858032
8.63,-0.03590842001220261,99.76048862220506
8.64,-0.03848189686505303,99.60798595295175
8.65,-0.03708692810369486,99.7303533642089
8.66,-0.03994901918303318,99.60798595295175
8.67,-0.03824138500964645,97.34966798251206
8.68,-0.034345092952059834,95.67122543108944
8.69,-0.034898270219494966,94.14528554892013
8.7,-0.035884368826661954,93.19922108576787
8.71,-0.03792871959761789,91.76551335685954
8.72,-0.03723123521693881,91.67328120359856
8.73,-0.038337589751809086,91.36827586509195
8.74,-0.0336716597569214,90.94090311532818
8.75,-0.03477801429179168,90.51353036556443
8.76,-0.034513451250844436,90.11720606343309
8.77,-0.032108332696778624,90.02588709980834
8.78,-0.032757714706376395,90.08707080543692
8.79,-0.029462702287306228,90.08707080543692
8.8,-0.03162730898596546,89.29350901153798
8.81,-0.03381596687016535,89.26246056390556
8.82,-0.029751316513794125,88.89627151977038
8.83,-0.030400698523391896,88.80495255614565
8.84,-0.029077883318655698,88.86613626177422
8.85,-0.03032854496676992,88.89627151977038
8.86,-0.02698543017661844,88.9273199674028
8.87,-0.030520954451095185,88.8350878141418
8.88,-0.02979941888487544,97.62453806302251
8.89,-0.03165136017150612,98.17427822404342
8.9,-0.030761466306501766,98.11309451841484
8.91,-0.031074131718530323,98.17427822404342
8.92,-0.030761466306501766,97.74690547427966
8.93,-0.0287892690921678,97.01452738600928
8.94,-0.03181971847029073,96.00727921722846
8.95,-0.03225263981002257,94.51147459305531
8.96,-0.028428501309057927,93.26040479139644
8.97,-0.029919674812578734,91.42945957072051
8.98,-0.0321804862534006,89.201276858277
8.99,-0.03169946254258744,87.30914793197249
9.0,-0.029534855843928204,85.72293753381085
9.01,-0.027081634918781072,84.5321382481443
9.02,-0.029198139246358987,83.70844119624921
9.03,-0.0298234700704161,82.36605243096561
9.04,-0.029510804658387544,81.5113069314381
9.05,-0.02890952501987109,80.74788039553532
9.06,-0.029775367699334785,80.3214208354078
9.07,-0.03561980578571471,80.01550230726494
9.08,-0.03684641624828828,79.49681059387645
9.09,-0.03427293939543786,79.64931326312976
9.1,-0.025903126827288823,79.55799429950503
9.11,0.0025734768528504217,79.68036171076217
9.12,0.009957190813832471,79.16166999737368
9.13,-0.0021886578841998914,79.28312421899457
9.14,-0.007936891228417188,78.76443250560608
9.15,-0.010486316895726952,78.76443250560608
9.16,-0.01592188482791569,78.76443250560608
9.17,-0.014093994726825673,78.3982434614709
9.18,-0.011544569059515909,78.45942716709946
9.19,-0.05882919983244982,78.4292919091033
9.2,-0.10132764468279276,78.36810820347473
9.21,0.15546686333481424,78.06310286496812
9.22,0.8981674728303378,78.0320544173357
9.23,1.3924433868764032,77.63573011520435
9.24,0.9059841081310517,77.54349796194337
9.25,0.1840637229426568,77.29967632906533
9.26,-0.023642315386466956,76.68966565205211
9.27,-0.023089138119031818,76.90335202693399
9.28,-0.04319592923102203,76.41479557154166
9.29,-0.06491414977423633,76.04860652740646
9.3,-0.07032566652088441,75.95728756378173
9.31,-0.07393334435198314,75.59109851964655
9.32,-0.07489539177360946,75.59109851964655
9.33,-0.07948916821187517,75.10254206425422
9.34,-0.08453991717541338,74.76648827811519
9.35,-0.08499688970068589,74.40029923398001
9.36,-0.08942230784016698,74.00397493184866
9.37,-0.09399203309289203,74.00397493184866
9.38,-0.09690222654331167,73.51541847645633
9.39,-0.1003896484467071,73.69896959334204
9.4,-0.10411758220550911,73.60673744008106
9.41,-0.10907212642688469,73.33278054920686
9.42,-0.11032278807499891,73.21041313794971
9.43,-0.10847084678836824,73.2715968435783
9.44,-0.09846555360345445,72.41685134405077
9.45,-0.07696379373010606,72.56935401330408
9.46,-0.04754919381388115,72.90540779944311
9.47,-0.006638127209221648,72.50817030767551
9.48,0.03328684078827087,72.78304038818597
9.49,0.07609795105064238,73.88160752059152
9.5,0.11443554080245145,79.16166999737368
9.51,0.12807256300400463,79.22285370300224
9.52,0.10741259462457928,88.37757980638189
9.53,0.07540046666996328,99.66916965858032
9.54,0.04273895670574952,108.88507946758854
9.55,0.016763676321838727,115.69108182654
9.56,-0.0021886578841998914,118.37677254674345
9.57,-0.009067296948828121,119.96298294490508
9.58,-0.015224400447236606,120.23785302541553
9.59,-0.015368707560480555,120.48258784792982
9.6,-0.013925636428041066,120.29903673104411
9.61,-0.016907983435082676,120.32917198904028
9.62,-0.01789408204224966,119.87166398128035
9.63,-0.019168794875904543,118.83428055450337
9.64,-0.02138150394564509,117.24715696670548
9.65,-0.02604743394053277,114.92765529063722
9.66,-0.027634812186216207,114.74501736338775
9.67,-0.02996777718366005,114.80620106901632
9.68,-0.03381596687016535,110.86944054715401
9.69,-0.03624513660977183,106.44412356989938
9.7,-0.03516283326044221,102.07999029827332
9.71,-0.03727933758802013,98.90665631231379
9.72,-0.034826116662873,92.13170240099473
9.73,-0.03646159727963775,91.36827586509195
9.74,-0.03672616032058499,90.4532598495721
9.75,-0.036221085424231164,90.48339510756827
9.76,-0.03497042377611694,90.48339510756827
9.77,-0.03643754609409709,90.11720606343309
9.78,-0.03242099810880718,89.59851435004458
9.79,-0.0314348995016402,89.29350901153798
9.8,-0.030641210378798477,88.8350878141418
9.81,-0.03059310800771716,88.07257446787527
9.82,-0.02751455625851292,87.58401801248294
9.83,-0.02972726532825347,87.00414259346587
9.84,-0.027682914557297524,86.42426717444881
9.85,-0.030520954451095185,86.45531562208123
9.86,-0.029222190431899647,86.39413191645265
9.87,-0.03020828903906663,86.9429588878373
9.88,-0.028332296566895294,87.12651000472302
9.89,-0.027971528783785424,87.67533697610767
9.9,-0.028957627390952406,88.43876351201045
9.91,-0.032108332696778624,88.4086282540143
9.92,-0.032493151665429154,88.4086282540143
9.93,-0.033647608571380744,88.43876351201045
9.94,-0.033912171612327985,96.83097626912357
9.95,-0.03278176589191705,96.70860885786642
9.96,-0.0345375024363851,96.15978188648177
9.97,-0.03203617914015665,96.03741447522462
9.98,-0.03148300187272151,95.27490112895809
9.99,-0.03280581707745771,94.05396658529538
