time_s,ECG1,ECG2,NIBP
0.0,0.5720739548261013,0.5984576702930497,142.1780955190456
0.01,0.5308721985142176,0.543454352244851,142.84099556121544
0.02,0.522747283207025,0.5567917581245122,141.9767267700938
0.03,0.5117364690202285,0.5278161539762454,139.9674488152242
0.04,0.5262103618625498,0.5388168175858852,136.79258386824665
0.05,0.5407286531491726,0.5220282231228075,133.31493087539994
0.06,0.539574293597331,0.5318784905379751,130.12830716935952
0.07,0.5540925848839539,0.5185770345393911,127.29003670055688
0.08,0.5639490395189088,0.5423039560503788,124.84274497059502
0.09,0.5720739548261013,0.5324536886352111,122.72322864951094
0.1,0.5795772919130716,0.5480918869038167,120.92707820265605
0.11,0.5842391285647395,0.5272409558790093,119.43518564655317
0.12,0.588279386996185,0.5400031636614345,118.21227470401367
0.13,0.5958271225274567,0.5342152328079967,117.22453894273177
0.14,0.5969814820792984,0.5452158964176363,116.3602701516101
0.15,0.5917868640960113,0.5139394998804253,115.3284390438424
0.16,0.6056835771624117,0.5353656290024688,114.1055281013029
0.17,0.5981802400754416,0.518001836442155,112.84881072645761
0.18,0.619047508897193,0.544604748439323,111.89488139748148
0.19,0.6277496039803063,0.5133643017831893,111.37896584359764
0.2,0.6689069618478886,0.5394279655641985,111.39072460266051
0.21,0.681693713806749,0.5127891036859531,111.92868782978726
0.22,0.7048697017321836,0.5538798177572546,112.75915018860316
0.23,0.7623212886584525,0.5411535598559066,113.47790433632169
0.24,0.7646300077621356,0.5428791541476149,113.98206113114266
0.25,0.7843429170320456,0.5533046196600185,114.39802723299202
0.26,0.7472258175959089,0.5596677486106926,114.75666938440986
0.27,0.7188108132428856,0.5301528962462669,115.10355277676481
0.28,0.6677526022960469,0.5173906884638417,115.41809958169685
0.29,0.6497712323538994,0.4925133707583818,115.64298584877443
0.3,0.6486168728020578,0.5139394998804253,115.68708119526023
0.31,0.6439994345946916,0.4884510341966521,115.51951887861419
0.32,0.6468853334742954,0.5052396286597298,115.17116564137638
0.33,0.6497712323538994,0.48902623229388814,114.67729776073543
0.34,0.6463081536983747,0.4953893612445621,114.15109329267155
0.35,0.6550102487814881,0.4792119147597978,113.49995200956458
0.36,0.6515027716816617,0.5012132419790774,112.79295662090894
0.37,0.710685897935693,0.5017884400763134,111.99630069439883
0.38,0.9572304591424715,0.7872304958297113,111.16583833558293
0.39,1.553545964557246,0.9261767861932986,110.41474760044149
0.4,1.8052851437473114,0.5012132419790774,109.70775221178585
0.41,0.7941993716670005,0.18794597827188467,109.044852169616
0.42,0.48096834711922054,0.21400964205289394,108.52893661573214
0.43,0.621933407776797,0.3963833887578042,108.08063392645984
0.44,0.6973663646452134,0.48615024180770783,107.65437891043045
0.45,0.7234726498945535,0.5012132419790774,107.17226978885238
0.46,0.7426083793885426,0.5214530250255714,106.67840190821143
0.47,0.7483801771477505,0.5127891036859531,106.25214689218204
0.48,0.7553507329031015,0.5295776981490309,105.92584132818712
0.49,0.7739092826211699,0.5284273019545587,105.67890738786664
0.5,0.7855416750281887,0.5411535598559066,105.46577987985195
0.51,0.8011699274223515,0.5278161539762454,105.24236345765723
0.52,0.8174197580367367,0.5527294215627825,104.93810556690521
0.53,0.8371326673066466,0.5498174811955249,104.60151108873028
0.54,0.8568899750208581,0.5608181448051647,104.2884341286811
0.55,0.8922311366849308,0.5712436103175684,104.07530662066641
0.56,0.929392634565369,0.6106446799782389,103.99593499699196
0.57,0.9589619984702339,0.6042456011464877,103.92832213238042
0.58,1.0198766640520276,0.6563729287085062,103.91803321820039
0.59,1.0720892345507078,0.667948790415382,104.36633590747269
0.6,1.1213715077254827,0.7113762467567051,106.2859533244878
0.61,1.1503636918544267,0.7154385833184348,111.0203236921798
0.62,1.1735840782241629,0.7212265141718727,117.97709952275608
0.63,1.1532939891783323,0.681250246413966,125.43803214815331
0.64,1.0929565033724593,0.6534609883412487,132.16992171165202
0.65,0.9827595646158909,0.5510038272710743,137.4554839104165
0.66,0.8945842542329155,0.5052396286597298,140.94489566232608
0.67,0.8197284771404199,0.4427227854663848,142.54849642952632
0.68,0.7843429170320456,0.4276597852950153,142.5044010830405
0.69,0.7478029973718298,0.37323166534405255,141.16831208452078
0.7,0.7460714580440674,0.3726564672468165,138.79010306405334
0.71,0.7303988072056029,0.344867209174099,135.45796471460977
0.72,0.7222738918984104,0.3355921398561675,132.21548690302066
0.73,0.7385237225127955,0.3327161493699871,129.3536989160923
0.74,0.7426083793885426,0.34659280346580723,126.89611827195041
0.75,0.7333291045295085,0.3199539415875619,124.80893853828924
0.76,0.7420311996126219,0.3350169417589314,123.05982312768587
0.77,0.7449170984922258,0.32171548576034736,121.67963878268036
0.78,0.7367921831850331,0.33386654556445927,120.51258194568953
0.79,0.7309759869815238,0.3165027530041455,119.67036082781077
0.8,0.7216967121224895,0.31937874349032586,119.02068938958665
0.81,0.7199651727947272,0.3107148221507076,118.45920864433414
0.82,0.713571796815297,0.314166010734124,117.83011503447007
0.83,0.7118402574875347,0.30086455473553997,116.9217508968626
0.84,0.7008294433007382,0.30201495093001207,115.720887627566
0.85,0.6932817077694663,0.2892886930286641,114.48768777084649
0.86,0.6892414493380208,0.29622702007657414,113.49995200956458
0.87,0.6967891848692926,0.2840759602724623,112.98403645568072
0.88,0.727512908325999,0.30086455473553997,112.91642359106918
0.89,0.7524648340234976,0.28580155456417045,113.19716396369543
0.9,0.7483801771477505,0.29622702007657414,113.62341897972482
0.91,0.8011699274223515,0.30780288178345,113.94825469883688
0.92,0.809872022505465,0.2973774162710463,114.12757577454579
0.93,0.8145338591571328,0.3060772874917418,114.240753830526
0.94,0.793045012115159,0.31477715871243733,114.39802723299202
0.95,0.7472258175959089,0.29273988161208053,114.62144365518674
0.96,0.6758775176032396,0.25743709839421697,114.8580886813272
0.97,0.6457309739224539,0.2458612366873411,114.99184456566746
0.98,0.6283267837562272,0.2337101768832292,114.95803813336168
0.99,0.6230877673286385,0.22907264222426343,114.76695829858988
1.0,0.6074595149344757,0.22213431517635338,114.40831614717204
1.01,0.605106397386491,0.2128592458584218,113.96001345789975
1.02,0.5964043023033776,0.21516003824736607,113.4440979040159
1.03,0.5987574198513623,0.21343444395565786,112.87085839970051
1.04,0.5975586618552191,0.21692158242015153,112.2652823079622
1.05,0.6132313126936836,0.21807197861462366,111.57004567836942
1.06,0.7652071875380565,0.4102959927347016,110.829243857408
1.07,1.257674731731391,0.631459661121969,110.07815312226656
1.08,1.7791788584979713,0.36514294210167036,109.3711577336109
1.09,0.8997788722162027,-0.003127639653721111,108.74206412374683
1.1,0.39283743518054676,-0.15480018791865635,108.18205322337718
1.11,0.4983725372854473,0.06870022273863267,107.69847425691626
1.12,0.5685664777262751,0.17000698761433486,107.1825587030324
1.13,0.6132313126936836,0.2041593746377263,106.68869082239145
1.14,0.6138084924696043,0.21170884966394968,106.2859533244878
1.15,0.6300583230839895,0.21749678051738758,105.94935884631288
1.16,0.6393375979430237,0.22849744412702735,105.65685971462375
1.17,0.6439994345946916,0.22616070185700585,105.37611934199748
1.18,0.6486168728020578,0.2337101768832292,105.118896487497
1.19,0.6660210629682846,0.23486057307770133,104.89401022041942
1.2,0.6689069618478886,0.24122370202837531,104.66912395334184
1.21,0.6828480733585905,0.24934837515183475,104.43394877208424
1.22,0.6985207241970549,0.2603490387614745,104.20906250500667
1.23,0.7228510716743312,0.2695881581983288,103.99593499699196
1.24,0.7524648340234976,0.2892886930286641,103.77251857479725
1.25,0.7913134727873966,0.31244041644241577,103.56967998096258
1.26,0.8365554875307258,0.3355921398561675,103.5138258754139
1.27,0.8823746820499758,0.36280619983164886,103.83866159452595
1.28,0.9218448990340973,0.38599387312647776,105.14094416073989
1.29,0.9699728126570304,0.4108711908319376,108.72001645050393
1.3,0.9920388394749251,0.42187185444157743,114.86837759550723
1.31,1.0001637547821176,0.4207214582471053,122.16174790425843
1.32,0.9363187918764185,0.3720812691495804,129.10676497577182
1.33,0.8446804028379185,0.3118652183451797,134.90824272842016
1.34,0.7489573569236713,0.2417989001256114,138.8797636019078
1.35,0.6724144389477148,0.18737078017464862,140.9551845765061
1.36,0.6173159695694307,0.1677061952253906,141.281490140501
1.37,0.5848163083406602,0.13585460059094343,140.19233508230178
1.38,0.5674121181744335,0.12657953127301186,138.09486643446058
1.39,0.561595921970924,0.1074901444209899,134.94204916072593
1.4,0.5610187421950033,0.11500366956613602,131.65400615776815
1.41,0.5639490395189088,0.11036613490717023,128.75988158341687
1.42,0.563371859742988,0.10572860024820445,126.24644683372631
1.43,0.5645262192948296,0.10227741166478804,124.12546066775936
1.44,0.5738054941538637,0.127729927467484,122.386634171336
1.45,0.5575556635394786,0.10285260976202411,120.98293230820472
1.46,0.5726511346020222,0.10691494632375383,119.89524709488835
1.47,0.5651033990707504,0.1074901444209899,119.07654349513534
1.48,0.556401303987637,0.1109413330044063,118.47096740339703
1.49,0.5656805788466711,0.12251719471128213,118.03295362830475
1.5,0.5500079280082067,0.10515340215096838,117.5170380744209
1.51,0.549430748232286,0.1074901444209899,116.68657571560502
1.52,0.5343352771697424,0.09530313473580074,115.51951887861419
1.53,0.5331809176179008,0.09357754044409254,114.18489972497733
1.54,0.5274091198586929,0.10285260976202411,113.10750342584096
1.55,0.5192842045515004,0.08315207493168884,112.51221624828267
1.56,0.5169310870035156,0.09012635186067615,112.4343144694911
1.57,0.510582109468387,0.07678894598101486,112.65773089168582
1.58,0.5088505701406246,0.08085128254274458,113.03989056122941
1.59,0.5384199340454895,0.07621374788377878,113.4440979040159
1.6,0.5755370334816261,0.08372727302892491,113.80274005543373
1.61,0.556401303987637,0.06870022273863267,114.1055281013029
1.62,0.5969814820792984,0.09591428271411406,114.33041436838047
1.63,0.6463081536983747,0.0866392133961825,114.46417025272072
1.64,0.6138084924696043,0.09530313473580074,114.55383079057519
1.65,0.6184703291212722,0.10630379834544051,114.55383079057519
1.66,0.5592872028672409,0.08142648063998065,114.48768777084649
1.67,0.4972181777336057,0.04957488600553347,114.34070328256048
1.68,0.46418573517321615,0.04206136086038735,114.08348042805999
1.69,0.446159966786767,0.025847964494545732,113.71307951757927
1.7,0.43284043349628737,0.021785627932816014,113.26477682830698
1.71,0.42413833841317394,0.020060033641107814,112.81500429415183
1.72,0.4108188051226943,0.010209766225940178,112.37846036394242
1.73,0.4113959848986151,0.003271439178030127,111.794931945447
1.74,0.41312752422637744,0.004997033469738326,111.12174298909714
1.75,0.4101972269024719,0.0020850931024807406,110.47060170599016
1.76,0.4101972269024719,0.025847964494545732,109.90912096073765
1.77,0.5459676695767612,0.171157383808807,109.43877059822246
1.78,1.008865849865231,0.44387318166085693,109.01104573731021
1.79,1.5865784071176354,0.2087969092966921,108.56274304803792
1.8,0.833669588651122,-0.16928798999278977,108.06887516739697
1.81,0.26869938491327633,-0.3835133313321472,107.59852480488178
1.82,0.2930297323905525,-0.1571369301886779,107.1605110297895
1.83,0.34990413954090066,-0.06043175009086422,106.81215779255169
1.84,0.4160134231059814,-0.0065788282371375085,106.62254780266275
1.85,0.4270242372927779,0.015422498982142029,106.4079504497652
1.86,0.4235611586372532,0.011935360517648376,106.16248635432757
1.87,0.43399479304812894,0.020060033641107814,105.9596477604929
1.88,0.4392338094757176,0.01948483554387175,105.7244725792353
1.89,0.4513989832143557,0.0385742223958937,105.48929739797771
1.9,0.47519654936001265,0.03972461859036583,105.25265237183724
1.91,0.483898644443126,0.05306202447002712,105.02923594964253
1.92,0.49024762197825467,0.06000035151793717,104.81610844162783
1.93,0.5018800143852736,0.06808907476031935,104.59122217455025
1.94,0.525633182086629,0.08548881720171037,104.34428823422978
1.95,0.5459676695767612,0.09357754044409254,104.08559553484643
1.96,0.5912096843200905,0.12136679851681,103.85042035358883
1.97,0.6306355028599103,0.145129669908875,103.7269533834286
1.98,0.6793849947030659,0.18273324551568282,103.80485516222016
1.99,0.7362150034091124,0.21170884966394968,104.51185055087582
2.0,0.7623212886584525,0.23601096927217347,106.86801189810036
2.01,0.8017471071982724,0.2504987713463069,111.90664015654437
2.02,0.8133794996052912,0.24873722717352145,118.80756188157196
2.03,0.766361547089898,0.20764651310221996,125.88633483742561
2.04,0.6799621744789867,0.13412900629923522,132.11406760610333
2.05,0.5865478476684226,0.07970088634827244,136.92780959746975
2.06,0.49433227885400177,0.02063523173834388,140.03506167983576
2.07,0.43630351215181207,-0.023367422700215197,141.3035378137439
2.08,0.39803205316383383,-0.0459439480167308,140.94489566232608
2.09,0.3771647843420824,-0.06273254247980849,139.27221218563142
2.1,0.3638008526073011,-0.08185787921290769,136.07529956541097
2.11,0.361492133503618,-0.07434435406776158,131.93474653039442
2.12,0.36322367283138035,-0.07434435406776158,128.34391548156748
2.13,0.36673114993120665,-0.07258280989497612,125.61735322386224
2.14,0.36673114993120665,-0.08822100816358168,123.61983402805552
2.15,0.36091495372769716,-0.0859202157746374,121.96037915530661
2.16,0.36615397015528584,-0.07952113694288618,120.42292140783508
2.17,0.3678855094830482,-0.0754947502622337,118.98688295728087
2.18,0.3510584990927422,-0.07837074074841403,117.66255271782404
2.19,0.35509875752418774,-0.06794527523601034,116.58515641868767
2.2,0.3481726002131383,-0.08415867160185196,115.66503352201732
2.21,0.33827174713388175,-0.08243307731014377,114.74491062534698
2.22,0.3284152924989268,-0.09170814662807533,113.51171076862747
2.23,0.3412020444577873,-0.08879620626081774,111.87283372423859
2.24,0.32552939361932287,-0.0922833447253114,110.64992278169909
2.25,0.31971319741581344,-0.09979686987045751,109.96497506628634
2.26,0.3150957592084472,-0.1061599988211315,109.85326685518898
2.27,0.3220663149637982,-0.10213361214047903,110.15605490105813
2.28,0.31567293898436793,-0.10558480072389542,110.68372921400487
2.29,0.3510584990927422,-0.09979686987045751,111.36867692941762
2.3,0.36615397015528584,-0.10849674109115301,112.0301071267046
2.31,0.3493269597649799,-0.10849674109115301,112.56807035383136
2.32,0.4195209002058077,-0.07779554265117797,112.95023002337494
2.33,0.43750227014795523,-0.09113294853083927,113.37648503940434
2.34,0.4386566296997968,-0.07491955216499764,113.88064183422532
2.35,0.4108188051226943,-0.07200761179774005,114.34070328256048
2.36,0.36673114993120665,-0.09864647367598538,114.58763722288096
2.37,0.29129819306279015,-0.12294859328420918,114.59939598194384
2.38,0.27158528379288027,-0.134524454991085,114.36422080068624
2.39,0.26403754826160847,-0.1316484645049047,114.06143275481709
2.4,0.2547582734025743,-0.13337405879661288,113.62341897972482
2.41,0.23677690346042676,-0.14264912811454444,113.09574466677809
2.42,0.23735408323634755,-0.14322432621178052,112.53426392152558
2.43,0.22980634770507574,-0.15134899933523996,111.91839891560724
2.44,0.22634326904955102,-0.1542249898214203,111.24520995925738
2.45,0.21764117396643765,-0.13107326640766861,110.53821457060172
2.46,0.25418109362665353,-0.13513560296939833,109.83121918194608
2.47,0.48096834711922054,0.1503064527839996,109.16831913977623
2.48,1.0668502181231192,0.2875630987369559,108.55098428897504
2.49,1.397485432837126,-0.16522565343106005,107.99097338860538
2.5,0.4160134231059814,-0.44660537262272826,107.47505783472154
2.51,0.04941546850767954,-0.42636558957623416,107.09289816517794
2.52,0.14398415487008512,-0.26423162591781796,106.72249725469723
2.53,0.1915348887170975,-0.1797134555051935,106.31828991191074
2.54,0.2466333580953817,-0.1357108010666344,105.9155524140071
2.55,0.25302673407481197,-0.12122299899250098,105.58924685001219
2.56,0.26172882915792534,-0.12471013745699464,105.33202399551169
2.57,0.27855583954823127,-0.10443440452942329,105.15270291980276
2.58,0.2791330193241521,-0.10907193918838907,105.03952486382255
2.59,0.2924525526146317,-0.09922167177322144,104.89401022041942
2.6,0.30697084390125456,-0.09864647367598538,104.6926414714676
2.61,0.31394139965660556,-0.0859202157746374,104.41190109884134
2.62,0.3284152924989268,-0.07606994835946977,104.13116072621509
2.63,0.3522128586445838,-0.05521901733466237,103.87246802683173
2.64,0.3730801274663353,-0.04306795753055047,103.67109927787992
2.65,0.4050026089191849,-0.020491432214034863,103.55939106678255
2.66,0.44385124768308387,0.00442183537250226,103.39035890525366
2.67,0.4856301837708884,0.03799902429865763,103.24484426185052
2.68,0.5349124569456631,0.05942515342070111,103.30069836739919
2.69,0.5935184034237736,0.11442847146889995,104.01945251511773
2.7,0.6248637051007024,0.12136679851681,106.599030284537
2.71,0.6393375979430237,0.1300666697375055,111.80522085962703
2.72,0.628903963532148,0.10630379834544051,118.60472328773729
2.73,0.5639490395189088,0.05536281685897139,125.32632393705596
2.74,0.46764881382874085,-0.00021569928646352488,131.1160429306414
2.75,0.3673083297071274,-0.06273254247980849,135.4462059555469
2.76,0.30115464769774514,-0.11834700850632066,138.0610600021548
2.77,0.25591263295441585,-0.14437472240625265,138.8915223609707
2.78,0.2269204488254718,-0.16756239570108158,138.26242875110663
2.79,0.2153324548627545,-0.17450072274899162,136.60150403347484
2.8,0.2112477979870074,-0.18607658445586747,133.76323356467222
2.81,0.20778471933148268,-0.18201424789413775,130.48694932077734
2.82,0.21297933731476976,-0.18316464408860988,127.53550079599451
2.83,0.2159096346386753,-0.1750759208462277,124.98972945888103
2.84,0.21297933731476976,-0.17856305931072133,122.75703508181672
2.85,0.21648681441459608,-0.17158878238173406,120.6463378300298
2.86,0.21764117396643765,-0.1727391785762062,118.7399490169604
2.87,0.20663035977964112,-0.18201424789413775,117.01141143471706
2.88,0.20081416357613166,-0.17622631704069983,115.56361422509998
2.89,0.19442078759670142,-0.17101358428449798,114.40831614717204
2.9,0.19326642804485986,-0.1721639804789701,113.53375844187036
2.91,0.18980334938933516,-0.16928798999278977,112.72534375629738
2.92,0.18749463028565203,-0.17565111894346377,111.794931945447
2.93,0.1764394176545539,-0.17335032655451948,110.66168154076196
2.94,0.17759377720639546,-0.18143904979690167,109.52843113607692
2.95,0.17066761989534604,-0.1797134555051935,108.7655816418726
2.96,0.1601895870401687,-0.1947405057954857,108.5745018071008
2.97,0.16773732257144053,-0.17856305931072133,108.92138519945576
2.98,0.2037000624557356,-0.1825894459913738,109.67394577948006
2.99,0.22518890949770945,-0.18316464408860988,110.42503651462151
3.0,0.22576608927363023,-0.17565111894346377,110.9982760189369
3.01,0.28086455865191445,-0.15192419743247604,111.4686263814521
3.02,0.27620272200024654,-0.17737671323517196,111.94044658885015
3.03,0.2948056701626165,-0.1461362665790381,112.4784098159769
3.04,0.24836489742314405,-0.15595058411312848,112.97227769661785
3.05,0.21413369686661132,-0.16350005913935187,113.24125931018122
3.06,0.1445613346460059,-0.19995323855168756,113.24125931018122
3.07,0.12249530782811127,-0.1901389210175972,113.02813180216653
3.08,0.11148449364131476,-0.208077911675147,112.64744197750579
3.09,0.09754338213061271,-0.20401557511341728,112.15357409686484
3.1,0.08537820839197462,-0.21792817909031464,111.61414102485523
3.11,0.08422384884013305,-0.20750271357791095,111.03208245124267
3.12,0.0865325679438162,-0.208077911675147,110.3809411681357
3.13,0.08306948928829148,-0.21095390216132734,109.72979988502874
3.14,0.0743673942051781,-0.21095390216132734,109.044852169616
3.15,0.12480402693179442,-0.2051659713078894,108.29376143447455
3.16,0.3371173875820402,0.050150084102769533,107.49710550796443
3.17,0.9067494279715537,0.2192223748090958,106.7783513602459
3.18,1.2513257541962624,-0.17450072274899162,106.18453402757048
3.19,0.2507180149711288,-0.46745630364753565,105.65685971462375
3.2,-0.117655877399237,-0.4958207598174892,105.20855702535145
3.21,-0.001642742439159158,-0.2955080224550291,104.7587844911963
3.22,0.0819151297364499,-0.20692751548067487,104.36633590747269
3.23,0.10917577453763161,-0.18492618826139534,104.00769375605485
3.24,0.11263885319315632,-0.17856305931072133,103.68285803694279
3.25,0.12773432425569994,-0.1542249898214203,103.44621301080234
3.26,0.13062022313530386,-0.16350005913935187,103.30069836739919
3.27,0.14629287397376825,-0.1391619896500508,103.19927907048186
3.28,0.1526862499531985,-0.1478618608707463,103.04200566801585
3.29,0.16485142369183658,-0.13279886069937683,102.85239567812691
3.3,0.17528505810271233,-0.12992287021319648,102.60546173780644
3.31,0.19326642804485986,-0.114859870041827,102.33648012424305
3.32,0.2112477979870074,-0.1015224641621657,102.13364153040838
3.33,0.24023998211595146,-0.07894593884565011,101.94256169563658
3.34,0.27620272200024654,-0.05928135389639209,101.74119294668476
3.35,0.3098567427808585,-0.04130641335776501,101.52806543867007
3.36,0.3638008526073011,-0.00485323394542931,101.4825002473014
3.37,0.41370470400229825,0.036273430006949436,101.79704705223344
3.38,0.45836953896970667,0.05421242066449925,103.28893960833632
3.39,0.505920272816719,0.08778960959065463,107.49710550796443
3.4,0.5204385641033419,0.08257687683445278,114.26280150376891
3.41,0.5151995476757533,0.07621374788377878,121.6561212645546
3.42,0.447935904558831,0.03569823190971337,128.3101090492617
3.43,0.33134558982283235,-0.044793551822258665,133.6177189212691
3.44,0.2507180149711288,-0.0922833447253114,137.1071306731787
3.45,0.17470787832679155,-0.1391619896500508,138.75629663174757
3.46,0.1294658635834623,-0.1704383861872619,138.9135700342136
3.47,0.09989649967859746,-0.1797134555051935,137.869980167383
3.48,0.0859553881678954,-0.19650204996827117,135.8842197306392
3.49,0.07898483241254438,-0.19995323855168756,132.92248229167632
3.5,0.08133794996052912,-0.1976524461627433,129.9592750078306
3.51,0.07205867510149495,-0.20635231738343882,127.40174491165425
3.52,0.07379021442925732,-0.21156505013964066,125.20285696689572
3.53,0.08364666906421227,-0.1976524461627433,123.36261117355502
3.54,0.07956201218846516,-0.20865310977238308,121.8031057528406
3.55,0.07956201218846516,-0.2005643865300009,120.45672784014086
3.56,0.08422384884013305,-0.19822764425997935,119.33376634963584
3.57,0.0865325679438162,-0.1855013863586314,118.50330399081994
3.58,0.0865325679438162,-0.1901389210175972,117.83011503447007
3.59,0.07205867510149495,-0.1959268518710351,117.33771699871198
3.6,0.06624247889798551,-0.19880284235721543,116.78799501252234
3.61,0.07552175375701967,-0.1855013863586314,116.02367567343516
3.62,0.0668196586739063,-0.1959268518710351,114.6670088465554
3.63,0.0586947433667137,-0.1901389210175972,113.00608412892363
3.64,0.05114700783544189,-0.19416530769824963,111.82726853286992
3.65,0.04941546850767954,-0.20113958462723694,111.22169244113162
3.66,0.03898183409680381,-0.20635231738343882,111.2114035269516
3.67,0.043599272304170086,-0.2127154463341128,111.54799800512653
3.68,0.09581184280285035,-0.2022899808217091,111.90664015654437
3.69,0.1056682974378053,-0.19243971340654145,112.10800890549618
3.7,0.11494757229683947,-0.1825894459913738,112.15357409686484
3.71,0.17586223787863312,-0.16871279189555372,112.2652823079622
3.72,0.14629287397376825,-0.18086385169966562,112.56807035383136
3.73,0.18167843408214257,-0.1414987319200723,113.03989056122941
3.74,0.11903222917258656,-0.15073785135692663,113.45438681819593
3.75,0.07085991710535179,-0.19880284235721543,113.64546665296771
3.76,0.013452728623384456,-0.21329064443134885,113.63370789390484
3.77,0.00821371219579579,-0.2098035059668552,113.4881932505017
3.78,-0.005683000870604655,-0.2167777828958425,113.17511629045252
3.79,-0.013230736401876463,-0.21214024823687672,112.75915018860316
3.8,-0.024241550588672982,-0.2225657137492804,112.2432346347193
3.81,-0.02308719103683141,-0.2231409118465165,111.64794745716101
3.82,-0.031212106344024004,-0.2306544369916626,111.08793655679136
3.83,-0.015539455505559603,-0.20692751548067487,110.53821457060172
3.84,-0.042222920530820524,-0.21156505013964066,109.90912096073765
3.85,0.0627794002424608,-0.13973718774728686,109.22564309020777
3.86,0.39048431763256203,0.1404921352499092,108.50688894248924
3.87,1.0314646580147449,0.16191826437195267,107.87779533262517
3.88,0.705491279952406,-0.2925960820877715,107.33983210549842
3.89,-0.058472751145205705,-0.5699494145987872,106.85772298392034
3.9,-0.16405225169440782,-0.41015219321039253,106.44175688207098
3.91,-0.0625574080209528,-0.25614290267543577,106.08311473065314
3.92,0.0001331953329047966,-0.20286517891894515,105.73476149341532
3.93,0.015184267951146812,-0.18201424789413775,105.42168453336615
3.94,0.022154823706497833,-0.1797134555051935,105.15270291980276
3.95,0.03898183409680381,-0.16116331686933033,104.9498643259681
3.96,0.031434098565532,-0.17565111894346377,104.80434968256496
3.97,0.052301367387283464,-0.15016265325969058,104.65883503916181
3.98,0.0586947433667137,-0.1600129206748582,104.4795139634529
3.99,0.0900400450436425,-0.12122299899250098,104.20906250500667
4.0,0.09989649967859746,-0.114859870041827,103.95183965050617
4.01,0.1132160329690771,-0.10094726606492964,103.76075981573437
4.02,0.1288886838075415,-0.10037206796769357,103.61524517233123
4.03,0.1596124072642479,-0.06970681940879579,103.54763230771968
4.04,0.19038052916525594,-0.05813095770191996,103.5358735486568
4.05,0.2390856225641099,-0.02512896687300065,103.48001944310812
4.06,0.28841229418318626,0.005572231566974392,103.44621301080234
4.07,0.3487497799890591,0.06057554961517324,103.9062744591375
4.08,0.39106149740848284,0.08200167873721671,105.92584132818712
4.09,0.4270242372927779,0.10864054061546204,110.61611634939331
4.1,0.4258698777409363,0.08372727302892491,117.29215180734332
4.11,0.40788850779878877,0.07391295549483452,124.27097531116249
4.12,0.32552939361932287,0.009059370031468046,130.542803426326
4.13,0.23215946525306047,-0.03900562096882075,135.424158282304
4.14,0.1416310373221004,-0.11194792967456942,138.44174982681554
4.15,0.08768692749565776,-0.134524454991085,139.7322736339666
4.16,0.033742817669215136,-0.18316464408860988,139.56471131732056
4.17,0.02388636303426019,-0.18780217874757565,138.2741875101695
4.18,0.0047506335402710785,-0.20344037701618123,135.92831507712498
4.19,0.005904993092112649,-0.19359010960101358,132.9445299649192
4.2,0.003596273988429508,-0.2057411694051255,130.1724025158453
4.21,0.0157614477270676,-0.19822764425997935,127.79419349537785
4.22,0.01056682974378053,-0.19359010960101358,125.77462662632826
4.23,0.022154823706497833,-0.19243971340654145,124.09165423545357
4.24,0.014607088175226027,-0.2057411694051255,122.6659046990794
4.25,0.031434098565532,-0.18435099016415926,121.45475251560278
4.26,0.020423284378735477,-0.1959268518710351,120.45672784014086
4.27,0.02970255923776964,-0.18086385169966562,119.67036082781077
4.28,0.01633862750298838,-0.19128931721206932,119.02068938958665
4.29,0.0070593526439542195,-0.19071411911483324,118.43716097109125
4.3,0.007636532419875005,-0.19186451530930537,117.79777844704715
4.31,0.007636532419875005,-0.1825894459913738,116.87765555037682
4.32,0.005327813316191864,-0.19128931721206932,115.27258493829372
4.33,-0.0027971019910007287,-0.18373984218584594,113.72483827664216
4.34,-0.012076376850034891,-0.20344037701618123,112.91642359106918
4.35,-0.003374281766921514,-0.1947405057954857,112.74739142954027
4.36,0.0001331953329047966,-0.1959268518710351,113.0839859077152
4.37,-0.010922017298193322,-0.2057411694051255,113.60137130648192
4.38,-0.0062601806465254406,-0.21214024823687672,113.97030237207977
4.39,0.040136193648645374,-0.17450072274899162,114.07172166899711
4.4,0.06508811934614393,-0.19243971340654145,114.1055281013029
4.41,0.05638602426303056,-0.18665178255310352,114.240753830526
4.42,0.1132160329690771,-0.15192419743247604,114.54354187639517
4.43,0.13932231821841723,-0.1704383861872619,114.89042526875012
4.44,0.11960940894850734,-0.16234966294487974,115.23877850598794
4.45,0.12480402693179442,-0.1461362665790381,115.40781066751683
4.46,0.07321303465333653,-0.1617385149665664,115.37400423521105
4.47,0.007636532419875005,-0.1872269806503396,115.10355277676481
4.48,-0.024241550588672982,-0.1976524461627433,114.72286295210408
4.49,-0.030634926568103217,-0.19416530769824963,114.31865560931759
4.5,-0.03875984187529581,-0.2057411694051255,113.88064183422532
4.51,-0.046307577406567615,-0.19995323855168756,113.37648503940434
4.52,-0.056164032041522566,-0.21386584252858493,112.81500429415183
4.53,-0.05558685226560178,-0.2051659713078894,112.16386301104487
4.54,-0.05207937516577547,-0.20750271357791095,111.49067405469499
4.55,-0.056164032041522566,-0.19880284235721543,110.77338975185933
4.56,-0.024241550588672982,-0.1959268518710351,110.08844203644658
4.57,0.15033313240521376,0.057699559128992904,109.51667237701405
4.58,0.7216967121224895,0.25279956373525114,109.06836968774175
4.59,1.1822861733072763,-0.11252312777180548,108.65240358589237
4.6,0.22807480837731336,-0.4605179765996256,108.29376143447455
4.61,-0.19886063202686133,-0.4998830963792189,107.91160176493095
4.62,-0.12227331560660328,-0.31172141882087073,107.58676604581889
4.63,-0.07121510465976458,-0.2185033771875507,107.31778443225552
4.64,-0.007414540198367011,-0.17335032655451948,107.05909173287216
4.65,0.001287554884746367,-0.1542249898214203,106.81215779255169
4.66,-0.003951461542842299,-0.16695124772276826,106.57698261129408
4.67,0.017492987054829955,-0.13337405879661288,106.44175688207098
4.68,0.020423284378735477,-0.14034833572560018,106.33004867097361
4.69,0.040136193648645374,-0.12179819708973705,106.16248635432757
4.7,0.037827474544962235,-0.13107326640766861,105.92584132818712
4.71,0.06912837777758943,-0.11022233538286122,105.7024249059924
4.72,0.08076077018460834,-0.1027088102377151,105.47753863891482
4.73,0.10393675811004295,-0.07315800799221218,105.23060469859435
4.74,0.12249530782811127,-0.07894593884565011,104.98367075827387
4.75,0.15788086793648556,-0.04191756133607834,104.7587844911963
4.76,0.18340997340990492,-0.030916897726438568,104.57946341548738
4.77,0.24836489742314405,0.023511222224524213,104.46775520439002
4.78,0.2907210132868694,0.0402998166876019,104.5456569831816
4.79,0.3510584990927422,0.09070154995791221,105.25265237183724
4.8,0.38932995808072046,0.09994066939476653,107.55295961351311
4.81,0.4258698777409363,0.13412900629923522,112.4784098159769
4.82,0.40788850779878877,0.09879027320029439,119.09859116837823
4.83,0.3643780323832219,0.06172594580964537,125.8422394909398
4.84,0.2553354531784951,-0.01700429374954121,131.69957134913682
4.85,0.1723991592231084,-0.06215734438257242,136.14144258513966
4.86,0.09350312369916722,-0.11773586052800733,138.77834430499047
4.87,0.04941546850767954,-0.13858679155281473,139.64261309611214
4.88,0.014029908399305242,-0.17622631704069983,139.0928911099225
4.89,0.00821371219579579,-0.17101358428449798,137.56719212151384
4.9,-0.006837360422446225,-0.19416530769824963,134.97438574814885
4.91,0.005904993092112649,-0.1768015151379359,131.95679420363732
4.92,-0.003951461542842299,-0.1895637229203611,129.19642551362628
4.93,0.013452728623384456,-0.1704383861872619,126.72855595530437
4.94,-0.0004883828873175876,-0.1947405057954857,124.68694141301187
4.95,0.03609593521719988,-0.15192419743247604,122.90254972521986
4.96,0.00821371219579579,-0.18373984218584594,121.30923787219965
4.97,0.019846104602814694,-0.16813759379831764,119.92905352719413
4.98,0.001287554884746367,-0.18607658445586747,118.7840443634462
4.99,0.017492987054829955,-0.15771212828591394,117.86392146677585
5.0,0.0007103751088255819,-0.18143904979690167,117.07902429932862
5.01,0.007636532419875005,-0.15828732638315002,116.26032069957562
5.02,-0.012653556625955676,-0.18492618826139534,115.3284390438424
5.03,-0.0022199222150799435,-0.16813759379831764,114.16138220685157
5.04,-0.02774902768849929,-0.19535165377379904,113.05164932029228
5.05,-0.005683000870604655,-0.16637604962553218,112.32113641351089
5.06,-0.025395910140514552,-0.19995323855168756,112.13152642362195
5.07,-0.025395910140514552,-0.1825894459913738,112.4784098159769
5.08,-0.032943645671786356,-0.1959268518710351,113.10750342584096
5.09,-0.019624112381306697,-0.17392552465175556,113.66751432621062
5.1,-0.046884757182488405,-0.21037870406409126,114.04967399575422
5.11,-0.033520825447707146,-0.18086385169966562,114.34070328256048
5.12,-0.014962275729638819,-0.19650204996827117,114.70081527886119
5.13,0.03898183409680381,-0.1721639804789701,115.18292440043925
5.14,0.019268924826893907,-0.208077911675147,115.62093817553153
5.15,0.06912837777758943,-0.1461362665790381,115.87816103003202
5.16,0.1016280390063598,-0.17856305931072133,115.94577389464358
5.17,0.08710974771973698,-0.15364979172418422,115.80025925124045
5.18,0.08768692749565776,-0.16407525723658792,115.45190601400263
5.19,0.05523166471118899,-0.13394925689384896,115.00360332473034
5.2,-0.005683000870604655,-0.1993780404544515,114.4979766850265
5.21,-0.03875984187529581,-0.1825894459913738,113.94825469883688
5.22,-0.07006074510792301,-0.20750271357791095,113.35443736616145
5.23,-0.0625574080209528,-0.18028865360242954,112.6915373239916
5.24,-0.09212677192581764,-0.208077911675147,112.04186588576748
5.25,-0.08573339594638742,-0.1872269806503396,111.37896584359764
5.26,-0.10256040633669337,-0.22486650613822468,110.71753564631065
5.27,-0.08457903639454584,-0.1872269806503396,110.10020079550945
5.28,-0.10779942276428205,-0.21735298099307857,109.53872005025694
5.29,-0.10371476588853495,-0.17101358428449798,109.01104573731021
5.3,0.0007103751088255819,-0.09807127557874931,108.54069537479502
5.31,0.43981098925163836,0.20764651310221996,108.04682749415406
5.32,1.0494460279568925,0.07678894598101486,107.55295961351311
5.33,0.5163539072275948,-0.29608322055226516,107.1384633565466
5.34,-0.18145644186063456,-0.574011751160517,106.79011011930878
5.35,-0.2000149915787029,-0.34472340964979004,106.58874137035697
5.36,-0.14780242108002262,-0.25208056611370605,106.43146796789095
5.37,-0.05789557136928492,-0.15886252448038607,106.25214689218204
5.38,-0.07121510465976458,-0.1872269806503396,106.02726062510446
5.39,-0.042222920530820524,-0.13686119726110654,105.79208544384686
5.4,-0.04861629651025076,-0.1542249898214203,105.54515150352638
5.41,-0.024241550588672982,-0.12007260279802885,105.34231290969171
5.42,-0.030634926568103217,-0.14843705896798237,105.17475059304567
5.43,-0.00856889975020858,-0.11194792967456942,104.9498643259681
5.44,-0.0004883828873175876,-0.12586053365146677,104.64707628009894
5.45,0.009989649967859745,-0.11079753348009728,104.36633590747269
5.46,0.02388636303426019,-0.11834700850632066,104.10911305297219
5.47,0.06797401822574786,-0.06043175009086422,103.85042035358883
5.48,0.0859553881678954,-0.07085721560326792,103.56967998096258
5.49,0.13292894223898702,-0.01700429374954121,103.30069836739919
5.5,0.16369706413999502,-0.016429095652305145,103.07581210032163
5.51,0.23331382480490204,0.05306202447002712,103.00966908059293
5.52,0.2547582734025743,0.041486162763151285,103.52558463447677
5.53,0.32726093294708525,0.11906600612786573,105.88174598170131
5.54,0.3469738422169951,0.10112701547031591,111.00856493311692
5.55,0.3638008526073011,0.12485393698130365,117.83011503447007
5.56,0.31798165808805107,0.06808907476031935,124.78689086504635
5.57,0.2466333580953817,0.03799902429865763,130.9808172014183
5.58,0.13989949799433804,-0.05349342304295417,135.6813811368045
5.59,0.07321303465333653,-0.07434435406776158,138.53141036467
5.6,-0.021355651709069053,-0.1617385149665664,139.60880666380635
5.61,-0.03178928611994479,-0.14437472240625265,139.23840575332565
5.62,-0.06486612712463595,-0.17795191133240804,137.90378659968877
5.63,-0.058472751145205705,-0.15771212828591394,135.64904454938159
5.64,-0.07876284019103638,-0.19880284235721543,132.77549780339032
5.65,-0.058472751145205705,-0.16813759379831764,130.08274197799085
5.66,-0.07472258175959089,-0.20113958462723694,127.67072652521762
5.67,-0.05558685226560178,-0.16695124772276826,125.59530555061933
5.68,-0.0706379248838438,-0.1976524461627433,123.83296153607021
5.69,-0.05207937516577547,-0.15943772257762215,122.36311665321024
5.7,-0.061358650024809634,-0.19128931721206932,121.19605981621942
5.71,-0.04746193695840919,-0.1571369301886779,120.27740676443193
5.72,-0.0665976664523983,-0.1895637229203611,119.61450672226209
5.73,-0.06020429047296806,-0.16580085152829613,119.04273706282956
5.74,-0.07183668287998697,-0.18837737684481173,118.43716097109125
5.75,-0.05500967248968099,-0.1524993955297121,117.69635915012982
5.76,-0.07121510465976458,-0.18086385169966562,116.75418858021656
5.77,-0.06717484622831908,-0.15595058411312848,115.64298584877443
5.78,-0.08284749706678349,-0.18143904979690167,114.54354187639517
5.79,-0.06428894734871515,-0.15073785135692663,113.76893362312795
5.8,-0.0863105757223082,-0.19359010960101358,113.4661455772588
5.81,-0.07356822220774932,-0.16637604962553218,113.54404735605038
5.82,-0.08919647460191213,-0.1895637229203611,113.78069238219084
5.83,-0.07299104243182854,-0.1617385149665664,113.8924005932882
5.84,-0.08861929482599133,-0.18316464408860988,113.9144482665311
5.85,-0.08284749706678349,-0.16695124772276826,114.03791523669133
5.86,-0.09154959214989686,-0.1993780404544515,114.35246204162337
5.87,-0.032943645671786356,-0.1414987319200723,114.73462171116697
5.88,-0.013230736401876463,-0.18780217874757565,115.0712161893419
5.89,-0.010344837522272535,-0.14556106848180203,115.31815012966237
5.9,0.026816660358165715,-0.1495874551624545,115.39605190845396
5.91,0.04826110895583797,-0.1461362665790381,115.25053726505081
5.92,0.03898183409680381,-0.15595058411312848,114.93599046011877
5.93,0.062157822022238414,-0.10328400833495116,114.44212257947783
5.94,-0.012076376850034891,-0.14494992050348873,113.90415935235107
5.95,-0.061358650024809634,-0.1571369301886779,113.36472628034146
5.96,-0.0978985696850255,-0.18316464408860988,112.87085839970051
5.97,-0.10429194566445574,-0.16522565343106005,112.36670160487954
5.98,-0.1332841297933998,-0.20865310977238308,111.794931945447
5.99,-0.12169613583068249,-0.17158878238173406,111.12174298909714
6.0,-0.14140904510059238,-0.2051659713078894,110.42503651462151
6.01,-0.12751233203419193,-0.1721639804789701,109.77536507639739
6.02,-0.13679160689322611,-0.1993780404544515,109.22564309020777
6.03,-0.13621442711730533,-0.1791382574079574,108.72001645050393
6.04,-0.117655877399237,-0.18435099016415926,108.22614856986299
6.05,0.05811756359079292,0.04551254944380375,107.83369998613937
6.06,0.5702980170540375,0.24701163288181324,107.564718372576
6.07,1.0854087678411874,-0.024517818894687328,107.23841280858107
6.08,0.18629587228950883,-0.39857633150351673,106.87977065716325
6.09,-0.2904990210653614,-0.49930789828198285,106.53141741992543
6.1,-0.21453328286532572,-0.3105710226263986,106.21834045987626
6.11,-0.13621442711730533,-0.17856305931072133,106.01550186604157
6.12,-0.10429194566445574,-0.17795191133240804,105.86998722263844
6.13,-0.08053877796310034,-0.11892220660355672,105.69066614692952
6.14,-0.08919647460191213,-0.15073785135692663,105.47753863891482
6.15,-0.061358650024809634,-0.11194792967456942,105.21884593953146
6.16,-0.059049930921126495,-0.1270109298459389,104.99542951733676
6.17,-0.03587394299569188,-0.09634568128704112,104.87196254717651
6.18,-0.039337021651216594,-0.1165854643335352,104.6926414714676
6.19,-0.009190477970430965,-0.07664514645670584,104.34428823422978
6.2,-0.0027971019910007287,-0.09170814662807533,103.98564608281195
6.21,0.031434098565532,-0.05230707696740478,103.68285803694279
6.22,0.03725029476904145,-0.06043175009086422,103.45797176986521
6.23,0.08364666906421227,-0.01700429374954121,103.2786506941563
6.24,0.11148449364131476,-0.01412830326336088,103.09932961844738
6.25,0.17355351877494996,0.05478761876173532,102.96410388922426
6.26,0.19792826469652774,0.033936687736927915,103.03171675383582
6.27,0.27504836244840497,0.11442847146889995,103.98564608281195
6.28,0.2982687488181412,0.10572860024820445,107.00323762732349
6.29,0.34293358378554967,0.14800566039505533,112.52397500734556
6.3,0.3243750340674813,0.10515340215096838,119.34552510869871
6.31,0.29538284993853725,0.10342780785926017,126.17883396911475
6.32,0.18980334938933516,0.012510558614884443,131.99060063594308
6.33,0.10624547721372608,-0.02106663031127093,136.09734723865387
6.34,0.008790891971716576,-0.09807127557874931,138.39765448032975
6.35,-0.02193283148498984,-0.09634568128704112,139.03703700437381
6.36,-0.08169313751494191,-0.16637604962553218,138.4976039323642
6.37,-0.08284749706678349,-0.14092353382283626,137.0733242408729
6.38,-0.09443549102950079,-0.1704383861872619,134.7847757582599
6.39,-0.09154959214989686,-0.15537538601589243,132.16992171165202
6.4,-0.08861929482599133,-0.16871279189555372,129.7579062588788
6.41,-0.07529976153551168,-0.14728666277351024,127.55901831412027
6.42,-0.10313758611261417,-0.1872269806503396,125.67320732941091
6.43,-0.07645412108735325,-0.13858679155281473,123.97994602435622
6.44,-0.08981805282213451,-0.16986318809002585,122.49834238243336
6.45,-0.08400185661862505,-0.14671146467627416,121.27543143989386
6.46,-0.09674421013318393,-0.1768015151379359,120.35530854322352
6.47,-0.0863105757223082,-0.15016265325969058,119.7276847782423
6.48,-0.10429194566445574,-0.17622631704069983,119.29995991733006
6.49,-0.09501267080542157,-0.15192419743247604,118.82960955481485
6.5,-0.117655877399237,-0.1825894459913738,118.16670951264501
6.51,-0.10722224298836126,-0.14671146467627416,117.14663716394018
6.52,-0.11938741672699935,-0.1727391785762062,116.2941271318814
6.53,-0.11587993962717304,-0.1565617320914418,115.59742065740576
6.54,-0.13386130956932057,-0.1872269806503396,114.89042526875012
6.55,-0.132706950017479,-0.16928798999278977,114.39802723299202
6.56,-0.1373687866691469,-0.1930149115037775,114.22899507146313
6.57,-0.13155259046563744,-0.16522565343106005,114.39802723299202
6.58,-0.13448288778954295,-0.18435099016415926,114.6670088465554
6.59,-0.13563724734138455,-0.16637604962553218,114.89042526875012
6.6,-0.15126549973554734,-0.19822764425997935,115.00360332473034
6.61,-0.13794596644506768,-0.16407525723658792,115.1373592090706
6.62,-0.15126549973554734,-0.19707724806550722,115.37400423521105
6.63,-0.15011114018370578,-0.16695124772276826,115.66503352201732
6.64,-0.14198622487651316,-0.18895257494204779,115.90020870327493
6.65,-0.08688775549822898,-0.16058811877209428,116.05748210574095
6.66,-0.09154959214989686,-0.19186451530930537,115.97958032694936
6.67,-0.0706379248838438,-0.1461362665790381,115.6988399543231
6.68,-0.020201292157227484,-0.1617385149665664,115.35048671708529
6.69,-0.033520825447707146,-0.15016265325969058,114.98155565148744
6.7,-0.02193283148498984,-0.1478618608707463,114.54354187639517
6.71,-0.05789557136928492,-0.12352379138144524,113.94825469883688
6.72,-0.11996459650292014,-0.17795191133240804,113.275065742487
6.73,-0.15823605549089836,-0.16986318809002585,112.57982911289423
6.74,-0.19015853694374796,-0.21214024823687672,111.88459248330146
6.75,-0.19712909269909898,-0.18607658445586747,111.2334512001945
6.76,-0.219150721072692,-0.21735298099307857,110.62787510845618
6.77,-0.21684200196900885,-0.18201424789413775,110.12224846875235
6.78,-0.23655491123891875,-0.21501623872305706,109.6283805881114
6.79,-0.22900717570764695,-0.1930149115037775,109.16831913977623
6.8,-0.2354005516870772,-0.21792817909031464,108.75382288280971
6.81,-0.2394408101185227,-0.17335032655451948,108.4054696455719
6.82,-0.18958135716782715,-0.16756239570108158,108.10268159970275
6.83,0.14629287397376825,0.15091760076231292,107.78813479477071
6.84,0.7600125695547694,0.2053457207132757,107.46329907565865
6.85,0.6434222548187708,-0.23295522938060687,107.23841280858107
6.86,-0.21102580576549942,-0.5658870780370575,107.00323762732349
6.87,-0.3879536063073709,-0.40030192579522494,106.74454492794013
6.88,-0.31891402541838465,-0.28799449730988297,106.5431761789883
6.89,-0.2354005516870772,-0.18895257494204779,106.41970920882807
6.9,-0.22669845660396382,-0.2022899808217091,106.29624223866783
6.91,-0.22088226040045436,-0.1617385149665664,106.08311473065314
6.92,-0.21741918174492963,-0.17101358428449798,105.86998722263844
6.93,-0.20059217135462368,-0.13973718774728686,105.61276436813795
6.94,-0.20583118778221235,-0.1542249898214203,105.35407166875459
6.95,-0.19015853694374796,-0.12237339518697311,105.129185401677
6.96,-0.18549670029208007,-0.13279886069937683,104.96162308503098
6.97,-0.1680925101258533,-0.1015224641621657,104.6926414714676
6.98,-0.15881323526681915,-0.11601026623629913,104.32224056098688
6.99,-0.13097541068971666,-0.07028201750603186,103.92832213238042
7.0,-0.11996459650292014,-0.07606994835946977,103.67109927787992
7.01,-0.0863105757223082,-0.02627936306747278,103.52558463447677
7.02,-0.059049930921126495,-0.024517818894687328,103.36831123201075
7.03,-0.006837360422446225,0.02757355878625393,103.28893960833632
7.04,0.03316563789329435,0.04551254944380375,103.54763230771968
7.05,0.08768692749565776,0.09994066939476653,104.83815611487074
7.06,0.1132160329690771,0.09591428271411406,108.4054696455719
7.07,0.13412770023513018,0.1300666697375055,114.45388133854071
7.08,0.1056682974378053,0.07678894598101486,121.38713965099122
7.09,0.044798030300313256,0.052486826372791055,128.01907976245545
7.1,-0.09328113147765922,-0.05230707696740478,133.55010605665754
7.11,-0.17159998722567962,-0.09052180055252594,137.4878204978394
7.12,-0.24814290520163607,-0.15073785135692663,139.5529525582577
7.13,-0.2858815828579951,-0.14901225706521845,139.97920757428707
7.14,-0.3258845811737357,-0.1930149115037775,139.1707928887141
7.15,-0.33458667625684907,-0.17392552465175556,137.47753158365938
7.16,-0.36184732105803075,-0.2127154463341128,134.85238862287147
7.17,-0.35896142217842686,-0.18435099016415926,131.99060063594308
7.18,-0.36531039971355544,-0.20459077321065336,129.42131178070386
7.19,-0.3722809554689065,-0.1872269806503396,127.121004539028
7.2,-0.3815602303279407,-0.2161666349175292,125.13524410228416
7.21,-0.3688178768133818,-0.18316464408860988,123.40670652004083
7.22,-0.3815602303279407,-0.19416530769824963,122.03828093409818
7.23,-0.39781006094232585,-0.1791382574079574,120.91678928847602
7.24,-0.3925710445147372,-0.19243971340654145,120.01871406504858
7.25,-0.39723288116640504,-0.18201424789413775,119.31171867639293
7.26,-0.41290553200486946,-0.19359010960101358,118.7619966902033
7.27,-0.4175229702122357,-0.16695124772276826,118.11085540709632
7.28,-0.44132053635789276,-0.21037870406409126,117.20249126948886
7.29,-0.44132053635789276,-0.1872269806503396,116.00162800019226
7.3,-0.45930190630004025,-0.20459077321065336,114.80076473089566
7.31,-0.4604562658518818,-0.17737671323517196,113.9144482665311
7.32,-0.486562551101222,-0.21735298099307857,114.84632992226432
7.33,-0.4714670800386784,-0.1825894459913738,116.0809996238667
7.34,-0.48771691065306355,-0.2057411694051255,116.45140053434741
7.35,-0.4813235346736333,-0.1825894459913738,116.2941271318814
7.36,-0.5120916565746413,-0.2185033771875507,116.01338675925514
7.37,-0.4981505450639393,-0.18086385169966562,116.09128853804673
7.38,-0.508584179474815,-0.2098035059668552,116.46168944852744
7.39,-0.4813235346736333,-0.17737671323517196,116.90999213779973
7.4,-0.4569931871963571,-0.2022899808217091,117.24658661597466
7.41,-0.46511810250354974,-0.17565111894346377,117.48323164211511
7.42,-0.4186773297640773,-0.1617385149665664,117.5390857476638
7.43,-0.4105968129011863,-0.18895257494204779,117.49352055629514
7.44,-0.42449352596758677,-0.1727391785762062,117.348005912892
7.45,-0.4175229702122357,-0.14843705896798237,117.1128307316344
7.46,-0.4569931871963571,-0.16928798999278977,116.65276928329924
7.47,-0.5376207620480606,-0.18665178255310352,116.11480605617248
7.48,-0.5811312374636276,-0.20750271357791095,115.54156655185709
7.49,-0.5938735909781865,-0.19707724806550722,115.02565099797324
7.5,-0.6002669669576167,-0.2202289714792589,114.40831614717204
7.51,-0.6222885953312097,-0.20344037701618123,113.75717486406508
7.52,-0.625796072431036,-0.21329064443134885,113.02813180216653
7.53,-0.6321450499661646,-0.1993780404544515,112.35494284581665
7.54,-0.6391156057215157,-0.21214024823687672,111.80522085962703
7.55,-0.6652218909708558,-0.20750271357791095,111.35691817035473
7.56,-0.6275276117587983,-0.2057411694051255,110.93066315432534
7.57,-0.44478361501341745,0.06291229188519476,110.53821457060172
7.58,0.12364966737995284,0.22964784032149949,110.15605490105813
7.59,0.5999117794032038,-0.13222366260214075,109.76360631733452
7.6,-0.36242450083395156,-0.47673137296546725,109.40496416591668
7.61,-0.7957533172175565,-0.4987327001847468,109.09041736098465
7.62,-0.7377245505153668,-0.3180845477715447,108.80967698835839
7.63,-0.6913281762201959,-0.21965377338202283,108.56274304803792
7.64,-0.6327222297420855,-0.1901389210175972,108.39518073139187
7.65,-0.625796072431036,-0.16522565343106005,108.28200267541166
7.66,-0.6135865002480964,-0.15771212828591394,108.13648803200853
7.67,-0.6089690620407301,-0.1357108010666344,107.83369998613937
7.68,-0.6054615849409037,-0.14843705896798237,107.54120085445024
7.69,-0.585171495895073,-0.114859870041827,107.32807334643553
7.7,-0.5892561527708201,-0.13337405879661288,107.14875227072662
7.71,-0.5637270472974008,-0.09515933521149172,106.9914788682606
7.72,-0.5590652106457329,-0.11370947384735487,106.75630368700301
7.73,-0.5457456773552533,-0.09285854282254746,106.45351564113385
7.74,-0.5080069996988942,-0.07434435406776158,106.13896883620181
7.75,-0.47612891669034624,-0.03785522477434862,105.90379365494422
7.76,-0.44132053635789276,-0.023942620797451263,105.73476149341532
7.77,-0.39781006094232585,0.02063523173834388,105.57895793583216
7.78,-0.33982569268443774,0.0402998166876019,105.47753863891482
7.79,-0.29516085771702927,0.08836480768789069,105.82589187615264
7.8,-0.2528047418533039,0.09127674805514828,107.27221924088686
7.81,-0.22145944017637514,0.12427873888406758,110.88509796295668
7.82,-0.22203661995229593,0.10342780785926017,116.69686462978503
7.83,-0.27598072977873855,0.07736414407825093,123.2611918766377
7.84,-0.3839133478759254,-0.01757949184677728,129.5330199918012
7.85,-0.47843763579402937,-0.06737007713877427,134.70540413458548
7.86,-0.561373929749416,-0.13628599916387046,138.18452697231504
7.87,-0.6066159444927454,-0.15016265325969058,139.97920757428707
7.88,-0.6408471450492781,-0.18143904979690167,140.14823973581596
7.89,-0.6466633412527875,-0.17335032655451948,139.0928911099225
7.9,-0.6652218909708558,-0.2057411694051255,137.02775904950423
7.91,-0.6634903516430934,-0.1947405057954857,134.0439739372985
7.92,-0.6547882565599801,-0.20459077321065336,131.05871898020987
7.93,-0.6512807794601537,-0.1930149115037775,128.37772191387327
7.94,-0.6432002625972628,-0.19650204996827117,126.00980180758584
7.95,-0.6391156057215157,-0.1791382574079574,123.85647905419599
7.96,-0.6402699652733572,-0.1855013863586314,121.97066806948663
7.97,-0.6368068866178326,-0.1727391785762062,120.44496908107797
7.98,-0.6460861614768667,-0.18895257494204779,119.18825170623269
7.99,-0.6437774423731836,-0.16871279189555372,118.1446618394021
8.0,-0.6460861614768667,-0.18780217874757565,117.3259582396491
8.01,-0.6524795374562969,-0.17856305931072133,116.529302313139
8.02,-0.650703599684233,-0.1855013863586314,115.57537298416287
8.03,-0.6536338970081385,-0.1825894459913738,114.44212257947783
8.04,-0.6565197958877425,-0.19416530769824963,113.29711341572991
8.05,-0.650703599684233,-0.17101358428449798,112.42255571042821
8.06,-0.6553654363359008,-0.1959268518710351,112.04186588576748
8.07,-0.6611816325394103,-0.1947405057954857,112.20942820241352
8.08,-0.657674155439584,-0.2022899808217091,112.75915018860316
8.09,-0.6489720603564706,-0.18373984218584594,113.42058038589015
8.1,-0.6721924467262068,-0.21792817909031464,113.90415935235107
8.11,-0.6570969756636632,-0.19128931721206932,114.27456026283178
8.12,-0.6437774423731836,-0.1976524461627433,113.37648503940434
8.13,-0.5967594898577904,-0.18780217874757565,112.71505484211735
8.14,-0.5741606817082765,-0.19243971340654145,113.20745287787544
8.15,-0.5758922210360389,-0.17737671323517196,114.27456026283178
8.16,-0.505698280595211,-0.16695124772276826,115.19468315950213
8.17,-0.5318045658445513,-0.1791382574079574,115.51951887861419
8.18,-0.4958418259602561,-0.1542249898214203,115.22701974692505
8.19,-0.5567564915420498,-0.16522565343106005,114.4979766850265
8.2,-0.5741606817082765,-0.17795191133240804,113.72483827664216
8.21,-0.6309906904143231,-0.1959268518710351,112.98403645568072
8.22,-0.645508981700946,-0.2022899808217091,112.36670160487954
8.23,-0.6588285149914256,-0.2005643865300009,111.70527140759255
8.24,-0.6698837276225237,-0.21735298099307857,111.14379066234004
8.25,-0.6779642444854147,-0.21792817909031464,110.56026224384463
8.26,-0.6681077898504597,-0.2155914368202931,109.94292739304343
8.27,-0.677387064709494,-0.21501623872305706,109.26973843669357
8.28,-0.6623359920912519,-0.20922830786961913,108.73177520956682
8.29,-0.6739239860539692,-0.1895637229203611,108.29376143447455
8.3,-0.5811312374636276,-0.15537538601589243,107.93511928305671
8.31,-0.2806425664304064,0.11385327337166389,107.57500728675602
8.32,0.33827174713388175,0.208221711199456,107.1605110297895
8.33,0.2779786597723105,-0.2532309623081782,106.74454492794013
8.34,-0.5938735909781865,-0.5323098891109022,106.4079504497652
8.35,-0.782966565258696,-0.41881611455001083,106.17277526850759
8.36,-0.667530610074539,-0.2457174371630321,105.9816954337358
8.37,-0.595027950530028,-0.18028865360242954,105.73476149341532
8.38,-0.5770465805878805,-0.16813759379831764,105.5333927444635
8.39,-0.5834399565673107,-0.1721639804789701,105.43197344754617
8.4,-0.5520946548903819,-0.1542249898214203,105.33202399551169
8.41,-0.5469000369070949,-0.134524454991085,105.118896487497
8.42,-0.5172862745579284,-0.12352379138144524,104.89401022041942
8.43,-0.5097829374709582,-0.12064780089526492,104.64707628009894
8.44,-0.47497455713850467,-0.10558480072389542,104.51185055087582
8.45,-0.4738201975866631,-0.10094726606492964,104.35604699329267
8.46,-0.4616106254037234,-0.10558480072389542,104.1194019671522
8.47,-0.4320412614988586,-0.07894593884565011,103.87246802683173
8.48,-0.3891079658592125,-0.05349342304295417,103.69314695112281
8.49,-0.3601157817302684,-0.02627936306747278,103.5138258754139
8.5,-0.30035547570031634,0.009059370031468046,103.33450479970497
8.51,-0.257999359836591,0.043786955152095554,103.26689193509343
8.52,-0.20583118778221235,0.053637222567263186,103.56967998096258
8.53,-0.149533960407785,0.10691494632375383,105.03952486382255
8.54,-0.09967450745708946,0.13412900629923522,109.01104573731021
8.55,-0.0863105757223082,0.1375801948826516,115.21673083274503
8.56,-0.09501267080542157,0.12542913507853973,122.25140844211289
8.57,-0.17448588610528354,0.07391295549483452,128.93920265912578
8.58,-0.2939620997208861,-0.023942620797451263,134.31295555086186
8.59,-0.36242450083395156,-0.04015601716329288,138.02725356984902
8.6,-0.4360815199303041,-0.10213361214047903,139.86749936318972
8.61,-0.4714670800386784,-0.11601026623629913,140.1026745444473
8.62,-0.5097829374709582,-0.15943772257762215,139.18255164777696
8.63,-0.5016580221637655,-0.13973718774728686,137.40991871904782
8.64,-0.508584179474815,-0.15886252448038607,134.8068234315028
8.65,-0.5277643074131058,-0.1704383861872619,132.05821350055464
8.66,-0.5074298199229734,-0.16522565343106005,129.77995393212169
8.67,-0.500503662611924,-0.1571369301886779,127.86180635998942
8.68,-0.5039667412674488,-0.16756239570108158,126.27878342114923
8.69,-0.48190071444955407,-0.14034833572560018,124.95592302657525
8.7,-0.49526464618433536,-0.16058811877209428,123.91233315974466
8.71,-0.508584179474815,-0.16928798999278977,123.11567723323455
8.72,-0.48367665222161804,-0.14494992050348873,122.53214881473914
8.73,-0.500503662611924,-0.1704383861872619,122.07208736640396
8.74,-0.4906028095326675,-0.15480018791865635,121.74725164729192
8.75,-0.5051211008192903,-0.15537538601589243,121.30923787219965
8.76,-0.4703127204868368,-0.1287365241376471,120.63604891584977
8.77,-0.4941102866324938,-0.14034833572560018,119.69387834593653
8.78,-0.5068526401470527,-0.17101358428449798,118.49301507663992
8.79,-0.4906028095326675,-0.13049806831043256,117.31419948058623
8.8,-0.47612891669034624,-0.13801159345557867,116.43964177528454
8.81,-0.4929559270806522,-0.13801159345557867,116.04719319156092
8.82,-0.4888712702049051,-0.14379952430901657,116.03543443249804
8.83,-0.4825222926697765,-0.13049806831043256,116.19270783496405
8.84,-0.5097829374709582,-0.16756239570108158,116.23680318144986
8.85,-0.46511810250354974,-0.12643573174870285,116.20446659402694
8.86,-0.4320412614988586,-0.14034833572560018,116.24856194051274
8.87,-0.43146408172293776,-0.1391619896500508,116.40583534297876
8.88,-0.41987608776022045,-0.14556106848180203,116.58515641868767
8.89,-0.38506770742776697,-0.14494992050348873,116.7306710620908
8.9,-0.3160281265387807,-0.07258280989497612,116.76447749439659
8.91,-0.34675184999548714,-0.09634568128704112,116.7203821479108
8.92,-0.4099752346809639,-0.12643573174870285,116.60720409193057
8.93,-0.40535779647359765,-0.09515933521149172,116.46168944852744
8.94,-0.5242568303132794,-0.19535165377379904,116.22651426726983
8.95,-0.4859853713253012,-0.11137273157733335,115.85611335678912
8.96,-0.49468746640841454,-0.15134899933523996,115.37400423521105
8.97,-0.5248340100892002,-0.15073785135692663,114.79047581671564
8.98,-0.5092057576950374,-0.1357108010666344,114.13933453360868
8.99,-0.5161319150060868,-0.13801159345557867,113.4881932505017
9.0,-0.5277643074131058,-0.15016265325969058,112.86056948552049
9.01,-0.532381745620472,-0.14556106848180203,112.14181533780196
9.02,-0.5202165718818339,-0.10849674109115301,111.37896584359764
9.03,-0.4320412614988586,-0.06449408665259394,110.54850348478175
9.04,-0.0625574080209528,0.22558550375976977,109.69599345272296
9.05,0.5749598537057053,0.23601096927217347,108.93314395851863
9.06,0.24605617831946092,-0.2127154463341128,108.32756786678033
9.07,-0.5172862745579284,-0.5045206310381847,107.88955409168805
9.08,-0.6211342357793681,-0.320385340160489,107.65437891043045
9.09,-0.5741606817082765,-0.20922830786961913,107.49710550796443
9.1,-0.4714670800386784,-0.12586053365146677,107.25017156764396
9.11,-0.45233135054468926,-0.09749607748151325,106.89152941622612
9.12,-0.44016617680605113,-0.08243307731014377,106.62254780266275
9.13,-0.4656952822794705,-0.10385920643218723,106.45351564113385
9.14,-0.43723587948214565,-0.08707061196910955,106.26243580636205
9.15,-0.4192545095399981,-0.08649541387187348,105.9816954337358
9.16,-0.3711265959170649,-0.04713029409228019,105.61276436813795
9.17,-0.40939805490504316,-0.06970681940879579,105.21884593953146
9.18,-0.36588757948947626,-0.04713029409228019,104.96162308503098
9.19,-0.35896142217842686,-0.05230707696740478,104.93810556690521
9.2,-0.3235758620700525,-0.01412830326336088,104.91605789366231
9.21,-0.281796925982248,0.026423162591781797,104.71468914471049
9.22,-0.2713632915713723,0.0020850931024807406,104.310481801924
9.23,-0.21391170464510334,0.05827475722622897,103.89598554495748
9.24,-0.14318498287265635,0.10457820405373232,103.65934051881703
9.25,-0.11241686097164832,0.10400300595649625,103.88422678589461
9.26,-0.031212106344024004,0.164794254858133,105.39816701524039
9.27,-0.013807916177797247,0.1757949184677728,109.35939897454803
9.28,-0.032943645671786356,0.13294266022368584,115.45190601400263
9.29,0.008790891971716576,0.17464452227330066,122.36311665321024
9.3,-0.1054463052162973,0.07908973836995913,128.915685141
9.31,-0.19304443582335187,0.028723954980726062,134.34676198316762
9.32,-0.2742491904509762,-0.03494328440709103,138.22862231880083
9.33,-0.351413686647155,-0.08185787921290769,140.34960848476777
9.34,-0.3717037756929857,-0.10792154299391694,141.03455620018053
9.35,-0.3960785216145635,-0.12007260279802885,140.59654242508827
9.36,-0.4105968129011863,-0.12237339518697311,139.37363148254877
9.37,-0.4303097221710962,-0.15537538601589243,137.32025818119337
9.38,-0.3879536063073709,-0.12758612794317498,134.79506467243993
9.39,-0.3989644204941674,-0.1420739300173084,132.4389033252154
9.4,-0.3873764265314501,-0.1391619896500508,130.50899699402024
9.41,-0.3925710445147372,-0.14034833572560018,128.98329800561157
9.42,-0.37401249479666887,-0.1391619896500508,127.81624116862076
9.43,-0.3537224057508382,-0.10792154299391694,126.89611827195041
9.44,-0.35896142217842686,-0.12294859328420918,126.11122110450319
9.45,-0.37521125279281203,-0.14379952430901657,125.48359733952198
9.46,-0.3554539450786005,-0.12934767211596043,125.0235358911868
9.47,-0.34732902977140795,-0.12352379138144524,124.62961746258033
9.48,-0.3479062095473287,-0.12007260279802885,124.0358001299049
9.49,-0.3554539450786005,-0.13049806831043256,123.08187080092877
9.5,-0.35429958552675894,-0.1374363953583426,121.75754056147193
9.51,-0.34155723201220006,-0.12237339518697311,120.25388924630617
9.52,-0.3647332199376347,-0.14092353382283626,118.9310288517322
9.53,-0.3554539450786005,-0.14322432621178052,118.03295362830475
9.54,-0.34271159156404163,-0.14322432621178052,117.67431147688691
9.55,-0.3421344117881209,-0.13858679155281473,117.76397201474137
9.56,-0.3409800522362793,-0.13628599916387046,118.06676006061053
9.57,-0.3253074013978149,-0.12528533555423071,118.3798370206597
9.58,-0.27598072977873855,-0.12816132604041103,118.65028847910594
9.59,-0.2933849199449653,-0.15016265325969058,118.81785079575198
9.6,-0.2504960227496208,-0.11194792967456942,118.85165722805776
9.61,-0.17857054298103064,-0.11892220660355672,118.7619966902033
9.62,-0.2104486259895786,-0.11543506813906307,118.67233615234885
9.63,-0.19712909269909898,-0.08994660245528988,118.67233615234885
9.64,-0.23424619213523562,-0.10964713728562515,118.82960955481485
9.65,-0.29223056039312373,-0.12816132604041103,119.21029937947559
9.66,-0.3253074013978149,-0.13513560296939833,119.66007191363074
9.67,-0.3485277877675511,-0.1524993955297121,119.97314887367992
9.68,-0.3461746702195664,-0.1461362665790381,119.9849076327428
9.69,-0.3728581352448273,-0.16637604962553218,119.54689385765053
9.7,-0.3728581352448273,-0.1727391785762062,118.80756188157196
9.71,-0.3531452259749174,-0.14843705896798237,117.79777844704715
9.72,-0.34559749044364557,-0.1391619896500508,116.81004268576525
9.73,-0.3572298828506645,-0.1617385149665664,116.04719319156092
9.74,-0.3386269346882946,-0.14264912811454444,115.66503352201732
9.75,-0.20640836755813313,0.05651321305344352,115.64298584877443
9.76,0.3406248646818665,0.27656243512731615,115.78850049217756
9.77,0.9142971635028254,0.0020850931024807406,115.720887627566
9.78,0.08710974771973698,-0.34993614240599186,115.10355277676481
9.79,-0.4424748959097343,-0.481368907624433,114.27456026283178
9.8,-0.43319562105070014,-0.30244634950293914,113.64546665296771
9.81,-0.3745896745725896,-0.21156505013964066,113.30887217479278
9.82,-0.3137194074350976,-0.15134899933523996,113.17511629045252
9.83,-0.29107620084128216,-0.1414987319200723,112.99432536986075
9.84,-0.2812197462063272,-0.12758612794317498,112.77090894766603
9.85,-0.26439273581602124,-0.12528533555423071,112.68124840981157
9.86,-0.25338192162922474,-0.11834700850632066,112.78119786184605
9.87,-0.23655491123891875,-0.10734634489668088,112.83852181227759
9.88,-0.22030508062453358,-0.09749607748151325,112.68124840981157
9.89,-0.2116029855414202,-0.09749607748151325,112.41079695136534
9.9,-0.2029008904583068,-0.08300827540737983,112.16386301104487
9.91,-0.17448588610528354,-0.07315800799221218,111.98454193533594
9.92,-0.15011114018370578,-0.05349342304295417,111.78317318638413
9.93,-0.11183968119572754,-0.03900562096882075,111.48038514051497
9.94,-0.061358650024809634,-0.007154026334373575,111.09822547097137
9.95,-0.021355651709069053,0.01657289517661416,110.72782456049066
9.96,0.04244491275232851,0.05536281685897139,110.42503651462151
9.97,0.09177158437140485,0.08894000578512676,110.45884294692729
9.98,0.15091031218113454,0.12542913507853973,111.50243281375788
9.99,0.17470787832679155,0.12542913507853973,114.57734830870095
