time_s,ECG1,ECG2,NIBP
0.0,0.01403808678003654,0.041472149860247796,63.031695415238424
0.01,-0.05094123914876896,-0.036687944337153854,63.18865618423592
0.02,0.014612372148310763,0.04494171533875219,63.289743330545775
0.03,-0.07180694086273236,-0.05232809497072443,63.401858165543985
0.04,0.01867490938313952,0.0611646445487903,63.513973000542194
0.05,-0.042816164679111444,-0.028583256227210002,63.58124190154111
0.06,0.0041688863771017605,0.03683702722880834,63.513973000542194
0.07,-0.056726632488420387,-0.029166034803677538,63.401858165543985
0.08,0.036073629059002986,0.07389090230002321,63.278348052234485
0.09,0.18051703409419714,0.1115275559477056,63.08756903792605
0.1,0.659066904494261,0.21401526746508923,62.86333936792964
0.11,0.2727430102733463,-0.03842272707640605,62.63910969793322
0.12,-0.22843795760241278,-0.1721771868707804,62.380694193002924
0.13,-0.2255239911041325,-0.08591240456343491,62.10022331069594
0.14,-0.015548244600313198,0.02409721648742503,61.808724739700594
0.15,-0.02541744500324798,-0.02164412527020122,61.5282538573936
0.16,0.023311731986242496,0.048994059393724115,61.30365659777424
0.17,-0.005104758829104197,0.00500105336550047,61.04560868246689
0.18,0.043028862963657453,0.04842483380740699,60.86622494646976
0.19,-0.0010422215942754401,0.008470618844004862,60.708896587849324
0.2,0.04768695539521504,0.05536396476441577,60.496062196164196
0.21,-0.005679044197378419,-0.0013688520051911856,60.28286021485613
0.22,0.07087106841072993,0.06983855824505128,60.15935010154663
0.23,0.025055857919519763,0.008470618844004862,60.05826295523677
0.24,0.08537709141676769,0.0791088035079302,59.93475284192727
0.25,0.034925058322454544,0.013105741475444322,59.78918735124107
0.26,0.10220152572435694,0.08026080767071486,59.65428195962028
0.27,0.05696060060142099,0.022945212324640366,59.485925912311494
0.28,0.14106150231091263,0.10920999463198587,59.250300964003785
0.29,0.08422852068021924,0.043206932599499995,59.08231250631794
0.3,0.14397546880919293,0.10574042915348147,59.09334019500629
0.31,0.13642467970780964,0.0808435862471824,59.43005228962386
0.32,0.21995129604902708,0.17347827392521956,59.979598775926554
0.33,0.19791575377006063,0.12368458811262138,60.854829668158466
0.34,0.302329341653696,0.21516727162787389,62.1678598013178
0.35,0.28201665547955224,0.17000870844671517,63.62645542516334
0.36,0.39223690653129367,0.26322617470121984,64.90529972338881
0.37,0.3510585186431865,0.1978058912452015,65.90404072893021
0.38,0.4467514768604356,0.2771179896053878,66.65576150785263
0.39,0.3551210558780153,0.17464383107815462,67.07077019215747
0.4,0.3481445521449062,0.2030102394629581,67.21670327246662
0.41,0.25185603873092827,0.12021502263411699,67.31779041877647
0.42,0.21763288474747558,0.1184802398948648,67.37366404146411
0.43,0.0935021658864252,0.017727311116733372,67.20567558377826
0.44,0.11728183409866891,0.07158689397445388,66.86896348916069
0.45,0.040136166293831745,-0.0007996264188740589,66.52122370585478
0.46,0.10162724035608271,0.07100411539798634,66.11724271023829
0.47,0.027948554589345476,-0.019326563954481492,65.791925893932
0.48,0.06797837174090422,0.04957683797019165,65.52248270031336
0.49,0.017505068818136474,-0.014108662746574496,65.16334763869615
0.5,0.07146662360745876,0.04669005106815479,64.87184906770081
0.51,0.025630143287793988,-0.006003974636630645,64.66967477508109
0.52,0.0830586801152162,0.05826430465660304,64.46786807208431
0.53,0.030266965890896964,-0.00426919189737845,64.32193499177518
0.54,0.08480280604849347,0.07332167671370608,64.24327081246496
0.55,0.017505068818136474,-0.0036864133209109154,64.19842487846567
0.56,0.08074026881366471,0.06463421002729469,64.09770532177876
0.57,0.01635649808158803,-0.0036864133209109154,63.92934927446998
0.58,0.09233232532142216,0.072156119560771,63.659906080851336
0.59,0.018100624014865296,-0.007169531789565715,63.3570122315447
0.6,0.0859513767850419,0.06578621419007935,63.13278256154828
0.61,0.05115393743331497,-0.008321535952350375,62.95303123592821
0.62,0.13353198303798394,0.06752099692933154,62.77364749993107
0.63,0.12946944580315517,0.006735836104752665,62.683955631932506
0.64,0.2309690671885103,0.09241783983563064,62.683955631932506
0.65,0.17122211905953658,0.03278468317383641,62.683955631932506
0.66,0.21995129604902708,0.10110530652204203,62.75122453293143
0.67,0.057534885969695214,-0.019326563954481492,62.89715761324057
0.68,0.05638631523314677,0.03857180996806053,63.042723103926775
0.69,-0.03294696427617667,-0.03611871875083673,63.22247442954685
0.7,0.01635649808158803,0.03915458854452807,63.37943519854434
0.71,-0.059640598986700696,-0.05059331223147223,63.44670409954327
0.72,0.005913012310379028,0.021793208161855707,63.46912706654291
0.73,-0.057322187685149205,-0.042475071131377974,63.43567641085492
0.74,0.02388601735451672,0.04032014569746314,63.37943519854434
0.75,-0.06078916972324914,-0.047110193762817436,63.31216629754542
0.76,0.00880570898020474,0.03451946591308861,63.166233217236275
0.77,-0.03932791281255691,0.010205401583257057,62.908185301928924
0.78,0.19442750190350608,0.1329548333755003,62.661532664932864
0.79,0.4571949626316446,0.16190402033677131,62.45935837231315
0.8,0.5198558772588986,0.08374392613936965,62.22373342400544
0.81,-0.27250904216034566,-0.2873911561393969,61.9208395746988
0.82,-0.18898242581912827,-0.04190584554506085,61.673819348079796
0.83,-0.10313739817635936,-0.04942775507853717,61.48340792339432
0.84,0.04883552613176348,0.05247717786237892,61.326079564773885
0.85,-0.027735856304799467,-0.037853501490088926,61.11287758346582
0.86,0.05000536669676652,0.047842055230939456,60.93349384746868
0.87,-0.0010422215942754401,-0.01469144132304203,60.74271483316026
0.88,0.06972249767418148,0.05652952191735084,60.55193581885183
0.89,0.01635649808158803,-0.00658675321309818,60.41739801685398
0.9,0.07318947971228142,0.051311620709443846,60.31631087054412
0.91,0.025630143287793988,-0.01005631869160257,60.19280075723462
0.92,0.07261519434400719,0.04669005106815479,60.01341702123749
0.93,0.040136166293831745,0.004418274789032935,59.82263800692906
0.94,0.09467200645142824,0.05594674334088331,59.76639679461849
0.95,0.02620442865606821,-0.012956658583789835,59.743973827618845
0.96,0.09930882905453123,0.06636899276654688,59.620831303932285
0.97,0.07842185751211322,0.032215457587519286,59.46350294531185
0.98,0.12134437133349767,0.08316114756290212,59.40762932262422
0.99,0.08422852068021924,0.035685023066023676,59.575985369933
1.0,0.1642668851548821,0.11557990000267752,60.02481229954878
1.01,0.1509307027138474,0.09184861424931351,60.8886479134694
1.02,0.23851985628989358,0.16827392570746297,62.077800343696296
1.03,0.22518367384885887,0.13353761195196784,63.44670409954327
1.04,0.31277282742490503,0.21806761152006113,64.77076192139096
1.05,0.30290362702197027,0.17522660965462217,65.89264545061893
1.06,0.39398103246457095,0.2580218264834633,66.75684865416248
1.07,0.35452550068128647,0.18970120313525765,67.32881810746483
1.08,0.4026803923025027,0.24181245026357556,67.6655302020824
1.09,0.30464775295524754,0.14974698817185553,67.84491393807953
1.1,0.2733172956416205,0.15669967211901473,67.87873218339045
1.11,0.13874309100936114,0.05362918202516358,67.7441943813926
1.12,0.12308849726677494,0.07794324635499512,67.53099240008454
1.13,0.015782212713313808,-0.019326563954481492,67.23912623946626
1.14,0.05406790393159528,0.03278468317383641,66.85756821084941
1.15,0.0041688863771017605,-0.02047856811726615,66.49880073885514
1.16,0.03956188092555752,0.017158085530416246,66.27420347923578
1.17,-0.003956188092555752,-0.033218378858649464,66.02755084223972
1.18,0.050579652065040746,0.035685023066023676,65.76950292693236
1.19,0.000701904339001827,-0.02800047765074247,65.544905667313
1.2,0.037243469624006036,0.013105741475444322,65.45521379931444
1.21,-0.003956188092555752,-0.035535940174369195,65.42139555400351
1.22,0.057534885969695214,0.033367461750303945,65.35412665300458
1.23,-0.005104758829104197,-0.034953161597901655,65.27583006331731
1.24,0.05172822280158919,0.03683702722880834,65.20819357269544
1.25,-0.001637776791004263,-0.019895789540798618,65.14092467169651
1.26,0.04071045166210597,0.03278468317383641,64.99499159138738
1.27,-0.005679044197378419,-0.02164412527020122,64.8045801667019
1.28,0.0441987035286605,0.03510224448955614,64.61380115239346
1.29,-0.005104758829104197,-0.018161006801546423,64.32193499177518
1.3,0.03143680645590001,0.025845552216827633,64.01904114246854
1.31,-0.026566015739796424,-0.031483596119397265,63.783416194160836
1.32,0.03664791442727721,0.035685023066023676,63.547791245853126
1.33,0.015782212713313808,-0.018743785378013956,63.413253443855275
1.34,0.11207072612729171,0.053046403448696045,63.39083047685563
1.35,0.0935021658864252,-0.0036864133209109154,63.413253443855275
1.36,0.19559734246850913,0.08142636482364993,63.43567641085492
1.37,0.11845167466367196,0.037419805805275874,63.547791245853126
1.38,0.15731165125022764,0.09011383151006132,63.68232904785098
1.39,0.03956188092555752,-0.00890431452881791,63.760993227161194
1.4,0.02679998385279703,0.020044872432453103,63.83965740647141
1.41,-0.052089809885317404,-0.04422340686078058,63.91795399615869
1.42,0.0024247604438244934,0.020044872432453103,63.94037696315833
1.43,-0.0364352161427312,-0.02047856811726615,63.8731080621594
1.44,-0.007423170130655686,0.011370958736192125,63.760993227161194
1.45,-0.04628314671721138,-0.035535940174369195,63.62645542516334
1.46,-0.005104758829104197,0.020044872432453103,63.44670409954327
1.47,-0.050345683952040136,-0.033218378858649464,63.289743330545775
1.48,-0.003956188092555752,0.019475646846135976,63.14381025023663
1.49,-0.058470758421697654,0.0009487093105285444,62.94200354723986
1.5,0.09756470312125395,0.07273889813723854,62.661532664932864
1.51,0.3539512153130122,0.14395986137763142,62.39208947131422
1.52,0.7855160346568628,0.14511186554041608,62.15646452300651
1.53,-0.1402745186580924,-0.21965331136765884,61.89841660769916
1.54,-0.2655538082556912,-0.0876471873026871,61.66279165939145
1.55,-0.16520275760688455,-0.05521488187276129,61.472012645083026
1.56,-0.002786347527552707,0.014257745638228982,61.326079564773885
1.57,-0.02831014167307369,-0.032066374695864805,61.18014648446474
1.58,0.01171967547848505,0.020044872432453103,61.00076274846761
1.59,-0.026566015739796424,-0.024530912172238076,60.87725263515811
1.6,0.03143680645590001,0.04437248975243507,60.79895604547083
1.61,-0.014973959232038977,-0.012373880007322301,60.66405065385004
1.62,0.0441987035286605,0.04610727249168726,60.473271639541615
1.63,0.0018504750755502712,-0.009473540115135036,60.361156804543405
1.64,0.05521647466814372,0.043206932599499995,60.215223724234264
1.65,0.024481572551245542,0.0021007134733132056,60.08068592223641
1.66,0.07842185751211322,0.05652952191735084,59.979598775926554
1.67,0.05232377799831801,0.020044872432453103,59.878879219239636
1.68,0.08886534328332223,0.05711230049381837,59.76639679461849
1.69,0.06449011987434969,0.02409721648742503,59.575985369933
1.7,0.11207072612729171,0.07389090230002321,59.497321190622785
1.71,0.07957042824866166,0.02989789627179956,59.631858992620636
1.72,0.16543672571988516,0.11384511726342533,60.05826295523677
1.73,0.14918657678057015,0.08257836898643459,61.00076274846761
1.74,0.22458811865213005,0.1601692375975191,62.35827122600329
1.75,0.2211211366140301,0.12426736668908892,63.82826212816012
1.76,0.30058521572041874,0.18621808466660286,65.16334763869615
1.77,0.3191537759612853,0.17753061798019149,66.3080217245467
1.78,0.3933854772678421,0.2296418651085094,67.19428030546698
1.79,0.3725197755538787,0.19143598587450986,67.72177141439296
1.8,0.4241416492131949,0.23312498357716419,68.0246652636996
1.81,0.338296621570426,0.15726889770533184,68.15920306569745
1.82,0.3150912387264565,0.1705914870231827,68.12575241000945
1.83,0.19385321653523185,0.077374020768678,67.96842405138902
1.84,0.1689037077579851,0.09184861424931351,67.71037613608168
1.85,0.07842185751211322,0.025845552216827633,67.45232822077432
1.86,0.077847572143839,0.042054928436715336,67.12701140446805
1.87,0.015782212713313808,-0.015274219899509566,66.72303040885156
1.88,0.06334154913780124,0.03857180996806053,66.40874128123363
1.89,0.007082852875382073,-0.01700900263876176,66.21832985654815
1.9,0.05172822280158919,0.028732339118864487,66.09481974323865
1.91,0.01867490938313952,-0.009473540115135036,65.91506841761857
1.92,0.05870472653469826,0.03451946591308861,65.78053061562072
1.93,0.003020315640553316,-0.016426224062294225,65.75810764862108
1.94,0.04709140019848621,0.03278468317383641,65.72428940331014
1.95,-0.0022120621592784852,-0.018161006801546423,65.7132617146218
1.96,0.04188029222710901,0.031049900434584218,65.72428940331014
1.97,0.006487297678653249,-0.006003974636630645,65.7018664363105
1.98,0.0389663257288287,0.026997556379612292,65.60114687962358
1.99,0.015186657516584984,0.00268349204978074,65.36552193131587
2.0,0.032011091824174234,0.031632679011051754,65.11850170469687
2.01,-0.0259917303715222,-0.02974881338014507,64.86045378938952
2.02,0.04883552613176348,0.04032014569746314,64.61380115239346
2.03,0.0024247604438244934,-0.004851970473845985,64.34435795877482
2.04,0.043028862963657453,0.03915458854452807,64.06388707646782
2.05,-0.0010422215942754401,-0.01122187584453764,63.83965740647141
2.06,0.040136166293831745,0.035685023066023676,63.71614729316191
2.07,-0.011485707365484443,-0.016426224062294225,63.659906080851336
2.08,0.03664791442727721,0.024679995063892565,63.68232904785098
2.09,-0.000467936226001218,-0.00890431452881791,63.77202091584954
2.1,0.027948554589345476,0.017158085530416246,63.94037696315833
2.11,0.023311731986242496,-0.0007996264188740589,63.9966181754689
2.12,0.09988311442280544,0.03683702722880834,64.04146410946818
2.13,0.09118375458487371,0.012522962898976786,64.15357894446639
2.14,0.19617162783678335,0.072156119560771,64.20982015677697
2.15,0.1480380060440217,0.047842055230939456,64.18739718977733
2.16,0.16775513702143666,0.09473540115135036,64.15357894446639
2.17,0.11381485206056897,0.05594674334088331,64.09770532177876
2.18,0.08769550271831918,0.05421196060163111,63.92934927446998
2.19,0.013442531583307717,-0.003103634744443381,63.71614729316191
2.2,0.0041688863771017605,0.013105741475444322,63.513973000542194
2.21,-0.029479982238076734,-0.021061346693733687,63.30077101923412
2.22,0.004743171745375982,0.02409721648742503,63.031695415238424
2.23,-0.045134575980662936,-0.025113690748705612,62.77364749993107
2.24,0.009401264176933561,0.022945212324640366,62.51559958462372
2.25,-0.028884427041347912,-0.017578228225078887,62.291002325004364
2.26,0.013442531583307717,0.031049900434584218,62.11161858900723
2.27,-0.02831014167307369,-0.01005631869160257,61.89841660769916
2.28,0.0441987035286605,0.07969158208439774,61.64036869239181
2.29,0.20661511360799234,0.12658492800480864,61.41577143277245
2.3,0.6932900584777136,0.30608072955680926,61.25881066377496
2.31,0.31045441612335356,0.010205401583257057,61.101849894777466
2.32,-0.2939915688994925,-0.19417368988489223,60.91107088046904
2.33,-0.20755098605999478,-0.0482757509157525,60.7651378001599
2.34,0.004743171745375982,0.031049900434584218,60.67544593216133
2.35,0.01171967547848505,0.006735836104752665,60.57435878585147
2.36,0.03549934369072877,0.03278468317383641,60.39497504985434
2.37,0.009401264176933561,0.008470618844004862,60.249041969545196
2.38,0.057534885969695214,0.03510224448955614,60.18177306854627
2.39,0.04188029222710901,0.03278468317383641,60.04723526654842
2.4,0.054642189299869505,0.029315117695332023,59.8450609739287
2.41,0.027374269221071255,0.009053397420472396,59.69912789361956
2.42,0.07261519434400719,0.041472149860247796,59.58701305862135
2.43,0.05172822280158919,0.022362433748172834,59.44107997831221
2.44,0.0958205771879767,0.05652952191735084,59.31793745462565
2.45,0.06740408637263,0.03278468317383641,59.2054550300045
2.46,0.11147517093056289,0.06578621419007935,59.07091722800665
2.47,0.08943962865159644,0.05015961654665919,58.9363794260088
2.48,0.1091567596290114,0.06868655408226662,58.86911052500987
2.49,0.12077008596522344,0.08316114756290212,58.902561180697866
2.5,0.14918657678057015,0.09937052378278982,59.10473547331758
2.51,0.15441895458040195,0.11037555178492094,59.732946138930494
2.52,0.1897906793004031,0.12716770658127619,60.854829668158466
2.53,0.21995129604902708,0.14627742269335114,62.324820570315296
2.54,0.27969824417800077,0.18390052335088314,63.85068509515976
2.55,0.2947785525523127,0.18448330192735066,65.20819357269544
2.56,0.3667131123857727,0.22675507820647253,66.3080217245467
2.57,0.3661388270174985,0.21633282878080895,67.10458843746841
2.58,0.43458513498440393,0.25222114669908874,67.62068426808311
2.59,0.4102099115754314,0.2296418651085094,67.89012746170175
2.6,0.378900724090259,0.1978058912452015,67.92357811738974
2.61,0.2837607814128295,0.13700717743047222,67.81146328239153
2.62,0.25011191279765105,0.12716770658127619,67.65450251339404
2.63,0.1456983249140156,0.05247717786237892,67.3850593197754
2.64,0.1300437311714294,0.0611646445487903,67.04834722515783
2.65,0.077847572143839,0.017158085530416246,66.63333854085299
2.66,0.08943962865159644,0.031632679011051754,66.2293575452365
2.67,0.048261240763489255,0.00268349204978074,65.9488866629295
2.68,0.06623424580762695,0.025845552216827633,65.74707995993273
2.69,0.05115393743331497,0.00500105336550047,65.56732863431264
2.7,0.06565996043935272,0.02641477780314476,65.38794489831551
2.71,0.022163161249694054,-0.007169531789565715,65.25303950669472
2.72,0.08769550271831918,0.05247717786237892,65.1857706056958
2.73,0.04477298889693472,0.013674967061761448,65.15231995000781
2.74,0.077847572143839,0.03683702722880834,65.07365577069758
2.75,0.048261240763489255,0.019475646846135976,64.96154093569938
2.76,0.06855265710917843,0.04610727249168726,64.7931848883906
2.77,0.04477298889693472,0.020044872432453103,64.62482884108181
2.78,0.07087106841072993,0.051311620709443846,64.46786807208431
2.79,0.030266965890896964,0.018310089693200908,64.29951202477554
2.8,0.05870472653469826,0.025262773640360097,64.06388707646782
2.81,0.034925058322454544,0.012522962898976786,63.783416194160836
2.82,0.05927901190297248,0.04842483380740699,63.53639596754183
2.83,0.034925058322454544,0.013674967061761448,63.37943519854434
2.84,0.04651711483021199,0.031632679011051754,63.26732036354613
2.85,0.013442531583307717,0.006735836104752665,63.21107915123556
2.86,0.05579076003641795,0.04725927665447192,63.24489739654649
2.87,0.009975549545207784,0.00500105336550047,63.32319398623376
2.88,0.032011091824174234,0.020044872432453103,63.401858165543985
2.89,0.0001063491422730041,-0.00426919189737845,63.57021421285277
2.9,0.04709140019848621,0.03683702722880834,63.73857026016155
2.91,0.02156760605296523,0.0009487093105285444,63.81686684984882
2.92,0.10045739979107966,0.040889371283780264,63.85068509515976
2.93,0.08016598344539048,0.019475646846135976,63.906926307470336
2.94,0.18804655336712583,0.05652952191735084,63.92934927446998
2.95,0.17064783369126238,0.048994059393724115,63.82826212816012
2.96,0.1874722679988516,0.08257836898643459,63.659906080851336
2.97,0.1300437311714294,0.05189439928591138,63.46912706654291
2.98,0.088291057915048,0.023527990901107902,63.2335021182352
2.99,-0.0033606328958269292,-0.02626569491149027,62.9644265142395
3.0,0.01635649808158803,0.01542330279116405,62.72880156593179
3.01,-0.02367331906997071,-0.01469144132304203,62.50420430631243
3.02,0.005338726942104806,0.008470618844004862,62.25755166931637
3.03,-0.01844094127013891,-0.015274219899509566,61.98810847569773
3.04,-0.000467936226001218,-0.0019516305816587199,61.696609904702385
3.05,-0.019036496466867732,-0.00890431452881791,61.41577143277245
3.06,0.0012761897072760492,-0.0036864133209109154,61.11287758346582
3.07,-0.01786665590186469,-0.0007996264188740589,60.87725263515811
3.08,0.04477298889693472,0.04610727249168726,60.68647362084968
3.09,0.22633224458540732,0.1456946441168836,60.57435878585147
3.1,0.7489744693718586,0.23080742226144446,60.484666917852905
3.11,0.20429670230644087,-0.04942775507853717,60.32770614885541
3.12,-0.2417741400434475,-0.1611721588686493,60.13692713454699
3.13,-0.19072655175240555,-0.05869800034141608,59.94614812023856
3.14,0.008231423611930517,0.025262773640360097,59.856456252239994
3.15,-0.0033606328958269292,-0.0013688520051911856,59.80021503992942
3.16,0.03549934369072877,0.017158085530416246,59.71052317193085
3.17,-0.000467936226001218,-0.007169531789565715,59.58701305862135
3.18,0.05000536669676652,0.031632679011051754,59.485925912311494
3.19,0.034925058322454544,0.01889286826966844,59.43005228962386
3.2,0.06740408637263,0.041472149860247796,59.35138811031364
3.21,0.034925058322454544,0.024679995063892565,59.22787799700414
3.22,0.06972249767418148,0.03857180996806053,59.17200437431651
3.23,0.05406790393159528,0.025845552216827633,59.08231250631794
3.24,0.07957042824866166,0.035685023066023676,58.95880239300844
3.25,0.049409811500037704,0.014840524214696517,58.79044634569966
3.26,0.11264501149556594,0.06058186597232276,58.66693623239016
3.27,0.0987132738578024,0.04610727249168726,58.57724436439159
3.28,0.13293642784125512,0.06983855824505128,58.44270656239374
3.29,0.12017453076849463,0.06810377550579909,58.36404238308352
3.3,0.17877290816091987,0.10227086367497709,58.44270656239374
3.31,0.16484117052315633,0.10458842499069682,58.82426459101059
3.32,0.20950781027781806,0.12368458811262138,59.69912789361956
3.33,0.21880272531247863,0.13180282921271563,60.98973505977926
3.34,0.2930344266190355,0.18738364181953793,62.51559958462372
3.35,0.2936299818157643,0.16595636439174324,64.00764586415725
3.36,0.36265057515094395,0.21228048472583702,65.23061653969508
3.37,0.3615020044143955,0.19664033409226644,66.21832985654815
3.38,0.4241416492131949,0.22327195973781772,66.93623239015962
3.39,0.39919214043594814,0.1978058912452015,67.3850593197754
3.4,0.38760008392819073,0.18448330192735066,67.59826130108347
3.41,0.29246014125076125,0.12138057978705205,67.60928898977181
3.42,0.24373096426127078,0.08663071304140652,67.42990525377468
3.43,0.17588021149109417,0.05826430465660304,67.17185733846733
3.44,0.1323621424729809,0.030467121858116685,66.83514524384977
3.45,0.07842185751211322,0.006153057528285131,66.3414723802347
3.46,0.08191010937866776,0.011940184322509251,65.83677182793129
3.47,0.04768695539521504,-0.011791101430854767,65.4662414880028
3.48,0.07087106841072993,-0.0036864133209109154,65.20819357269544
3.49,0.025055857919519763,-0.02974881338014507,64.91669500170009
3.5,0.07842185751211322,0.0073186146812202,64.64725180808145
3.51,0.043028862963657453,-0.01005631869160257,64.49029103908396
3.52,0.06276726376952702,-0.0007996264188740589,64.42302213808503
3.53,0.042454577595383236,-0.00021684784240652444,64.32193499177518
3.54,0.06449011987434969,0.01542330279116405,64.24327081246496
3.55,0.04768695539521504,0.010205401583257057,64.15357894446639
3.56,0.05638631523314677,0.009622623006789522,64.04146410946818
3.57,0.03664791442727721,0.006735836104752665,63.82826212816012
3.58,0.034925058322454544,-0.0019516305816587199,63.648878392162985
3.59,0.008231423611930517,-0.016426224062294225,63.50294531185384
3.6,0.018100624014865296,-0.004851970473845985,63.34598454285635
3.61,0.012293960846759273,-0.010639097268070106,63.166233217236275
3.62,0.01924919475141374,-0.010639097268070106,63.02030013692713
3.63,0.000701904339001827,-0.010639097268070106,62.95303123592821
3.64,0.022163161249694054,-0.009473540115135036,62.95303123592821
3.65,0.005913012310379028,-0.012373880007322301,62.9644265142395
3.66,0.03258537719244845,-0.0019516305816587199,63.054118382238066
3.67,-0.005104758829104197,-0.02626569491149027,63.177628495547566
3.68,0.02620442865606821,-0.018161006801546423,63.31216629754542
3.69,0.059853297271246705,-0.01122187584453764,63.4805223448542
3.7,0.09756470312125395,0.00500105336550047,63.62645542516334
3.71,0.13585039433953544,-0.003103634744443381,63.73857026016155
3.72,0.16020434792005336,0.03915458854452807,63.80583916116048
3.73,0.14454975417746715,0.036267801642491215,63.82826212816012
3.74,0.15499323994867617,0.06058186597232276,63.68232904785098
3.75,0.04188029222710901,-0.016426224062294225,63.44670409954327
3.76,0.03086252108762579,-0.008321535952350375,63.2335021182352
3.77,-0.017292370533590465,-0.02626569491149027,63.031695415238424
3.78,-0.016718085165316244,-0.032066374695864805,62.86333936792964
3.79,-0.03817934207600847,-0.037853501490088926,62.70637859893215
3.8,-0.01844094127013891,-0.025113690748705612,62.48178133931279
3.81,-0.03758378687927964,-0.032066374695864805,62.23512870231673
3.82,-0.021354907768419223,-0.02164412527020122,61.96568550869809
3.83,-0.045134575980662936,-0.030318038966462197,61.73006056039038
3.84,-0.02831014167307369,-0.019326563954481492,61.53928154608195
3.85,0.011124120281756229,0.00500105336550047,61.38232077708446
3.86,0.23735001572489053,0.12311536252630426,61.23638769677532
3.87,0.7031592588806485,0.1978058912452015,61.0121580267789
3.88,0.15150498808212162,-0.06680268845135993,60.78756076715954
3.89,-0.3380626534574254,-0.21213140183418253,60.6416276868504
3.9,-0.18840814045085405,-0.05869800034141608,60.55193581885183
3.91,-0.039923468009285736,-0.030900817542929733,60.39497504985434
3.92,0.0041688863771017605,-0.028583256227210002,60.237646691233905
3.93,-0.00859301069565873,-0.02974881338014507,60.15935010154663
3.94,0.022163161249694054,-0.01469144132304203,60.125531856235696
3.95,-0.0010422215942754401,-0.012956658583789835,60.04723526654842
3.96,0.022163161249694054,-0.005421196060163111,59.92372515323892
3.97,0.010549834913482006,-0.007169531789565715,59.83403328524035
3.98,0.02679998385279703,-0.007738757375882841,59.743973827618845
3.99,0.02156760605296523,-0.00658675321309818,59.59840833693264
4.0,0.045347274265208945,0.0015179348968456712,59.46350294531185
4.01,0.045347274265208945,0.010205401583257057,59.396234044312926
4.02,0.04883552613176348,-0.006003974636630645,59.31793745462565
4.03,0.04477298889693472,0.0032527176360978667,59.18303206300486
4.04,0.06914821230590726,0.011940184322509251,59.0598895393183
4.05,0.06972249767418148,0.020044872432453103,59.014676015696075
4.06,0.0958205771879767,0.030467121858116685,59.014676015696075
4.07,0.11032660019401444,0.043206932599499995,59.18303206300486
4.08,0.1433799136124641,0.06173387013510743,59.69912789361956
4.09,0.1642668851548821,0.08663071304140652,60.65302296516169
4.1,0.21705859937920136,0.10864076904566874,61.98810847569773
4.11,0.23851985628989358,0.12485014526555645,63.50294531185384
4.12,0.30001093035214454,0.15379933222682746,64.91669500170009
4.13,0.32668329523421397,0.17927895370959407,66.0610014979277
4.14,0.36728739775404695,0.18970120313525765,66.91380942315998
4.15,0.39223690653129367,0.21111492757290196,67.5085694330849
4.16,0.36265057515094395,0.1671219215446783,67.9125504287014
4.17,0.28027252954627496,0.11616267857914506,68.04708823069925
4.18,0.2541744500324798,0.10284008926129422,67.94600108438938
4.19,0.1532491140153989,0.0594163088193877,67.69934844739332
4.2,0.10220152572435694,0.022362433748172834,67.37366404146411
4.21,0.043028862963657453,0.0032527176360978667,67.05974250346912
4.22,0.010549834913482006,-0.030318038966462197,66.73442568716284
4.23,0.0024247604438244934,-0.01469144132304203,66.42013655954491
4.24,0.007657138243656295,-0.034953161597901655,66.10584743192699
4.25,-0.016718085165316244,-0.037853501490088926,65.791925893932
4.26,0.008231423611930517,-0.031483596119397265,65.56732863431264
4.27,-0.004530473460829974,-0.02974881338014507,65.4327908323148
4.28,0.027374269221071255,-0.012373880007322301,65.29825303031696
4.29,0.005338726942104806,-0.017578228225078887,65.17474291700745
4.3,0.01403808678003654,-0.02279612943298588,65.08505104900888
4.31,-0.010337136628935997,-0.023948133595770544,65.07365577069758
4.32,-0.0022120621592784852,-0.031483596119397265,65.06262808200924
4.33,0.012293960846759273,-0.004851970473845985,65.00638686969866
4.34,0.02620442865606821,-0.010639097268070106,64.86045378938952
4.35,-0.000467936226001218,-0.015843445485826693,64.66967477508109
4.36,0.0035946010088275383,-0.032066374695864805,64.49029103908396
4.37,-0.006848884762381464,-0.026848473487957807,64.29951202477554
4.38,-0.0010422215942754401,-0.036687944337153854,64.06388707646782
4.39,-0.010337136628935997,-0.019895789540798618,63.81686684984882
4.4,-0.020185067203416177,-0.04017106280580865,63.62645542516334
4.41,-0.031798393539628225,-0.031483596119397265,63.4805223448542
4.42,-0.028884427041347912,-0.0500105336550047,63.39083047685563
4.43,-0.022503478504967665,-0.02047856811726615,63.39083047685563
4.44,-0.02541744500324798,-0.0482757509157525,63.44670409954327
4.45,-0.03062855297462518,-0.02800047765074247,63.57021421285277
4.46,0.006487297678653249,-0.03263560028218193,63.70475201485062
4.47,0.04362441816038628,-0.01700900263876176,63.80583916116048
4.48,0.07318947971228142,-0.03611871875083673,63.884503340470694
4.49,0.14106150231091263,0.022945212324640366,63.91795399615869
4.5,0.1196002454002204,0.02641477780314476,63.97419520846926
4.51,0.07435932027728447,0.03915458854452807,63.96279993015797
4.52,0.02620442865606821,-0.0036864133209109154,63.82826212816012
4.53,-0.027161570936525246,-0.023948133595770544,63.59263717985241
4.54,-0.04977139858376592,-0.04422340686078058,63.44670409954327
4.55,-0.07180694086273236,-0.03958828422934112,63.31216629754542
4.56,-0.06833995882463242,-0.05348009913350909,63.14381025023663
4.57,-0.08456883793549286,-0.05348009913350909,62.94200354723986
4.58,-0.06485170695807789,-0.062750344396388,62.69498332062086
4.59,-0.06427742158980368,-0.041323066968593315,62.448330683624796
4.6,-0.05904504378997187,-0.05348009913350909,62.23512870231673
4.61,-0.07472090736101268,-0.04654096817650031,61.99950375400902
4.62,-0.06195901028825219,-0.015843445485826693,61.78630177270095
4.63,0.1068383483274599,0.06983855824505128,61.55067682439324
4.64,0.4183349860450889,0.15843445485826693,61.31505187608553
4.65,0.5482723680742453,0.02121042958538817,61.101849894777466
4.66,-0.24526239191000204,-0.2810348037588557,60.92209856915739
4.67,-0.29514013963604097,-0.13048818916812607,60.80998373415918
4.68,-0.11532500988084564,-0.05638043902569635,60.65302296516169
4.69,-0.03526537557772816,-0.02974881338014507,60.45084867254197
4.7,-0.04570886134893716,-0.06390234855917266,60.30528318185577
4.71,-0.014399673863764754,-0.008321535952350375,60.226619002545554
4.72,-0.029479982238076734,-0.05059331223147223,60.06965823354806
4.73,-0.010337136628935997,-0.01469144132304203,59.94614812023856
4.74,-0.001637776791004263,-0.02974881338014507,59.878879219239636
4.75,-0.00859301069565873,-0.016426224062294225,59.81161031824071
4.76,0.0001063491422730041,-0.029166034803677538,59.71052317193085
4.77,0.01924919475141374,0.006153057528285131,59.59840833693264
4.78,0.015782212713313808,-0.01700900263876176,59.46350294531185
4.79,0.036073629059002986,0.020044872432453103,59.36278338862493
4.8,0.02679998385279703,-0.013525884170106962,59.250300964003785
4.81,0.03549934369072877,0.01542330279116405,59.11576316200593
4.82,0.043028862963657453,0.006153057528285131,58.98122536000808
4.83,0.07667773157883595,0.04610727249168726,58.86911052500987
4.84,0.08131455418193893,0.023527990901107902,58.95880239300844
4.85,0.10337136628935997,0.06578621419007935,59.373811077313285
4.86,0.11381485206056897,0.05711230049381837,60.249041969545196
4.87,0.17528465629436535,0.11906301847133233,61.50583089039396
4.88,0.20312686174143782,0.11037555178492094,62.97545420292785
4.89,0.26346936506714036,0.16942592987024763,64.41162685977375
4.9,0.290716015317484,0.14684664827966826,65.72428940331014
4.91,0.353376929944738,0.2064933579316129,66.67818447485227
4.92,0.37020136425232725,0.17869617513312655,67.34021338577611
4.93,0.3852816726266392,0.20242746088649058,67.69934844739332
4.94,0.33655249563714873,0.14684664827966826,67.9011551503901
4.95,0.28782331864765826,0.15321655365035994,67.95739636270068
4.96,0.18109131946247137,0.05594674334088331,67.80006800408025
4.97,0.12251421189850072,0.05421196060163111,67.51959712177324
4.98,0.05810917133796944,-0.0036864133209109154,67.21670327246662
4.99,0.04477298889693472,0.017727311116733372,66.92520470147127
5.0,-0.001637776791004263,-0.03611871875083673,66.54364667285442
5.01,-0.000467936226001218,0.0009487093105285444,66.2293575452365
5.02,-0.014973959232038977,-0.04017106280580865,66.01615556392842
5.03,-0.010337136628935997,-0.02164412527020122,65.84779951661965
5.04,-0.024247604438244932,-0.0517453163942569,65.64599281362287
5.05,-0.0033606328958269292,-0.006003974636630645,65.4327908323148
5.06,-0.031798393539628225,-0.05638043902569635,65.28685775200566
5.07,0.005913012310379028,0.00036593073406101,65.23061653969508
5.08,-0.0259917303715222,-0.03611871875083673,65.20819357269544
5.09,-0.019610781835141956,-0.008321535952350375,65.20819357269544
5.1,-0.03586093077445698,-0.037270722913621386,65.16334763869615
5.11,-0.019610781835141956,-0.0025344091581262543,65.08505104900888
5.12,-0.03875362744428269,-0.03958828422934112,64.90529972338881
5.13,-0.022503478504967665,0.0009487093105285444,64.6362241193931
5.14,-0.054408221186868895,-0.05869800034141608,64.33333027008648
5.15,-0.01844094127013891,-0.0036864133209109154,64.05249179815654
5.16,-0.0312028383428994,-0.04654096817650031,63.85068509515976
5.17,-0.0022120621592784852,0.00036593073406101,63.68232904785098
5.18,-0.027735856304799467,-0.05406287770997662,63.50294531185384
5.19,-0.007423170130655686,-0.012373880007322301,63.39083047685563
5.2,-0.0312028383428994,-0.061015561657135814,63.3570122315447
5.21,0.005338726942104806,-0.007169531789565715,63.3570122315447
5.22,-0.01786665590186469,-0.05521488187276129,63.39083047685563
5.23,-0.004530473460829974,-0.012956658583789835,63.50294531185384
5.24,0.03143680645590001,-0.035535940174369195,63.58124190154111
5.25,0.0650856750710785,-0.0007996264188740589,63.67130135916263
5.26,0.09292788051815097,-0.023948133595770544,63.73857026016155
5.27,0.13699896507608386,0.011940184322509251,63.73857026016155
5.28,0.14165705750764146,0.027580334956079828,63.73857026016155
5.29,0.12889516043488097,0.06521698860376222,63.648878392162985
5.3,0.03956188092555752,-0.023948133595770544,63.547791245853126
5.31,0.005338726942104806,-0.008321535952350375,63.43567641085492
5.32,-0.0416463241141084,-0.05753244318848102,63.289743330545775
5.33,-0.027161570936525246,-0.010639097268070106,63.08756903792605
5.34,-0.04107203874583418,-0.047110193762817436,62.88576233492928
5.35,-0.031798393539628225,-0.007169531789565715,62.69498332062086
5.36,-0.04396473541565989,-0.05059331223147223,62.47075365062444
5.37,-0.017292370533590465,0.0009487093105285444,62.1678598013178
5.38,-0.04456029061238871,-0.04422340686078058,61.87599364069952
5.39,-0.020185067203416177,-0.0025344091581262543,61.65139638108016
5.4,-0.034691090209453934,-0.0007996264188740589,61.41577143277245
5.41,0.17877290816091987,0.12194980537336918,61.19154176277603
5.42,0.48737684920872315,0.1902704287215748,60.967312092779615
5.43,0.42820418644802366,0.031632679011051754,60.78756076715954
5.44,-0.2823782425632805,-0.3001309668807802,60.57435878585147
5.45,-0.223205579802581,-0.0679546926141446,60.40600273854269
5.46,-0.08863137517032162,-0.04884497650206963,60.28286021485613
5.47,0.0012761897072760492,0.021793208161855707,60.18177306854627
5.48,-0.005679044197378419,-0.02974881338014507,60.04723526654842
5.49,0.0018504750755502712,0.009622623006789522,59.77779207292978
5.5,-0.021354907768419223,-0.02800047765074247,59.59840833693264
5.51,-0.0022120621592784852,0.013674967061761448,59.508348879311136
5.52,0.0001063491422730041,-0.01700900263876176,59.40762932262422
5.53,0.03781775499228025,0.033950240326771484,59.29551448762601
5.54,0.012293960846759273,-0.018161006801546423,59.16060909600522
5.55,0.04883552613176348,0.04378971117596753,59.04849426100701
5.56,0.024481572551245542,-0.007169531789565715,58.94740711469715
5.57,0.045347274265208945,0.03915458854452807,58.80147403438801
5.58,0.04071045166210597,0.005570278951817597,58.633485576702164
5.59,0.06797837174090422,0.04437248975243507,58.54342611908066
5.6,0.06276726376952702,0.018310089693200908,58.49858018508137
5.61,0.0958205771879767,0.0576815260801355,58.43131128408245
5.62,0.10277581109263116,0.03857180996806053,58.49858018508137
5.63,0.16252275922160486,0.10747521189273368,58.891533492009515
5.64,0.1375945202728127,0.04842483380740699,59.575985369933
5.65,0.21182622157936956,0.14452908696394853,60.68647362084968
5.66,0.2234395479155816,0.11789746131839726,62.190282768317445
5.67,0.28027252954627496,0.17174349118596735,63.783416194160836
5.68,0.30347791239024446,0.16132124176030377,65.15231995000781
5.69,0.36265057515094395,0.2157500502043414,66.2293575452365
5.7,0.3632248605192182,0.17927895370959407,67.03731953646948
5.71,0.3962994437661225,0.2354425448928839,67.56444305577253
5.72,0.32204647263111097,0.15611689354254718,67.84491393807953
5.73,0.28782331864765826,0.15495133638961212,67.96842405138902
5.74,0.18226116002747442,0.05711230049381837,67.82249097107989
5.75,0.1584602219867761,0.08257836898643459,67.4971741547736
5.76,0.07493360564555869,0.014257745638228982,67.1380390931564
5.77,0.03318093238917728,0.017727311116733372,66.72303040885156
5.78,-0.007423170130655686,-0.034953161597901655,66.29662644623542
5.79,0.02620442865606821,0.020044872432453103,65.93749138461821
5.8,-0.024247604438244932,-0.04074028839212578,65.58975160131229
5.81,-0.007423170130655686,0.00268349204978074,65.26443478500602
5.82,-0.04628314671721138,-0.04942775507853717,65.01778214800996
5.83,-0.006274599394107241,0.012522962898976786,64.82700313370154
5.84,-0.03294696427617667,-0.030318038966462197,64.68107005339239
5.85,-0.010337136628935997,0.019475646846135976,64.56895521839418
5.86,-0.05266409525359163,-0.034953161597901655,64.45647279377303
5.87,0.007657138243656295,0.026997556379612292,64.40059917108539
5.88,-0.039923468009285736,-0.021061346693733687,64.35575323708612
5.89,-0.007423170130655686,0.02641477780314476,64.2770890577759
5.9,-0.030054267606350958,-0.02626569491149027,64.09770532177876
5.91,-0.01322983329876171,0.02062765100892064,63.8731080621594
5.92,-0.03932791281255691,-0.028583256227210002,63.6040324581637
5.93,-0.014399673863764754,0.01889286826966844,63.37943519854434
5.94,-0.03294696427617667,-0.029166034803677538,63.20005146254721
5.95,-0.012655547930487487,0.022362433748172834,63.00927244823878
5.96,-0.0625332956565264,-0.04769297233928497,62.87473464624093
5.97,-0.021354907768419223,0.017727311116733372,62.82952112261871
5.98,-0.05789647305342343,-0.04769297233928497,62.94200354723986
5.99,-0.00859301069565873,0.015992528377481177,63.07654134923771
6.0,0.020419035316416787,-0.02626569491149027,63.24489739654649
6.01,0.05870472653469826,0.03510224448955614,63.44670409954327
6.02,0.1091567596290114,-0.015843445485826693,63.62645542516334
6.03,0.13699896507608386,0.06173387013510743,63.7495979488499
6.04,0.1068383483274599,0.027580334956079828,63.83965740647141
6.05,0.0830586801152162,0.05536396476441577,63.83965740647141
6.06,-0.019610781835141956,-0.04537541102356524,63.760993227161194
6.07,-0.01322983329876171,0.013105741475444322,63.58124190154111
6.08,-0.07472090736101268,-0.052897320557041556,63.424281132543626
6.09,-0.052089809885317404,-0.0007996264188740589,63.289743330545775
6.1,-0.07818788939911261,-0.04769297233928497,63.11035959454864
6.11,-0.06427742158980368,-0.0019516305816587199,62.94200354723986
6.12,-0.09560787890343068,-0.05638043902569635,62.69498332062086
6.13,-0.06427742158980368,-0.012956658583789835,62.45935837231315
6.14,-0.07529519272928689,-0.04654096817650031,62.22373342400544
6.15,-0.06542599232635211,0.029315117695332023,61.932234853010094
6.16,0.01403808678003654,0.013105741475444322,61.584127480081236
6.17,0.2704245989717948,0.1456946441168836,61.30365659777424
6.18,0.7582481145780646,0.07158689397445388,61.079426927777824
6.19,-0.010337136628935997,-0.14959790528020106,60.843801979470115
6.2,-0.3224080597148392,-0.17622953092575233,60.68647362084968
6.21,-0.1918963923174086,-0.036687944337153854,60.52951285185219
6.22,-0.06948852956118087,-0.03958828422934112,60.338733837543764
6.23,-0.019036496466867732,0.009053397420472396,60.17037779023498
6.24,-0.04224187931083723,-0.027431252064425343,60.03583998823713
6.25,-0.005679044197378419,0.031632679011051754,59.9685710872382
6.26,-0.050345683952040136,-0.03842272707640605,59.93475284192727
6.27,-0.01786665590186469,0.009622623006789522,59.867483940928345
6.28,-0.027735856304799467,-0.030900817542929733,59.755369105930136
6.29,0.012868246215033496,0.037419805805275874,59.631858992620636
6.3,-0.02367331906997071,-0.019326563954481492,59.47489822362314
6.31,-0.005679044197378419,0.02062765100892064,59.28411920931472
6.32,-0.022503478504967665,-0.02164412527020122,59.16060909600522
6.33,0.03086252108762579,0.04262415402303246,59.138186129005575
6.34,-0.005679044197378419,-0.021061346693733687,59.014676015696075
6.35,0.06449011987434969,0.06578621419007935,58.8128693126993
6.36,0.018100624014865296,-0.00658675321309818,58.67833151070145
6.37,0.09175803995314794,0.09241783983563064,58.67833151070145
6.38,0.032011091824174234,0.021793208161855707,58.8128693126993
6.39,0.12134437133349767,0.12021502263411699,59.2054550300045
6.4,0.1167075487303947,0.06058186597232276,59.979598775926554
6.41,0.1874722679988516,0.14627742269335114,61.19154176277603
6.42,0.20950781027781806,0.13180282921271563,62.683955631932506
6.43,0.27623126213990085,0.19954067398445371,64.24327081246496
6.44,0.30001093035214454,0.17579583524093928,65.58975160131229
6.45,0.3446775701068063,0.22558952105353747,66.55467436154277
6.46,0.3249391693009367,0.16885670428393051,67.19428030546698
6.47,0.33248995840232,0.20242746088649058,67.60928898977181
6.48,0.2524303240992025,0.1150106744163604,67.84491393807953
6.49,0.20197829100488937,0.12716770658127619,67.89012746170175
6.5,0.0935021658864252,0.029315117695332023,67.78904031539189
6.51,0.06855265710917843,0.053046403448696045,67.5085694330849
6.52,-0.00859301069565873,-0.029166034803677538,67.03731953646948
6.53,0.01867490938313952,0.02121042958538817,66.56606963985406
6.54,-0.027735856304799467,-0.04537541102356524,66.19553929992556
6.55,0.009401264176933561,0.024679995063892565,65.91506841761857
6.56,-0.029479982238076734,-0.03842272707640605,65.63459753531157
6.57,0.005338726942104806,0.01889286826966844,65.27583006331731
6.58,-0.030054267606350958,-0.04190584554506085,64.99499159138738
6.59,0.004743171745375982,0.02062765100892064,64.7931848883906
6.6,-0.03411680484117971,-0.037853501490088926,64.70349302039203
6.61,0.01171967547848505,0.031632679011051754,64.59137818539382
6.62,-0.02367331906997071,-0.018161006801546423,64.45647279377303
6.63,-0.014399673863764754,0.017727311116733372,64.36678092577446
6.64,-0.0416463241141084,-0.02221335085651835,64.24327081246496
6.65,-0.012059992733758663,0.03683702722880834,64.07528235477912
6.66,-0.06776567345635821,-0.04017106280580865,63.92934927446998
6.67,-0.00859301069565873,0.035685023066023676,63.73857026016155
6.68,-0.05615234712014616,-0.02974881338014507,63.50294531185384
6.69,-0.022503478504967665,0.02062765100892064,63.289743330545775
6.7,-0.06370313622152945,-0.03842272707640605,63.18865618423592
6.71,-0.0259917303715222,0.023527990901107902,63.14381025023663
6.72,-0.054408221186868895,-0.02800047765074247,63.09896431623735
6.73,-0.016122529968587422,0.028732339118864487,63.11035959454864
6.74,-0.03817934207600847,-0.031483596119397265,63.166233217236275
6.75,0.040136166293831745,0.031632679011051754,63.25592508523484
6.76,0.01867490938313952,-0.032066374695864805,63.39083047685563
6.77,0.1300437311714294,0.04725927665447192,63.58124190154111
6.78,0.059853297271246705,0.0021007134733132056,63.760993227161194
6.79,0.10975231482574023,0.09821851962000516,63.92934927446998
6.8,0.004743171745375982,-0.01005631869160257,63.96279993015797
6.81,-0.009741581432207175,0.020044872432453103,63.94037696315833
6.82,-0.08922693036705043,-0.05579766044922882,63.83965740647141
6.83,-0.04570886134893716,0.011370958736192125,63.69372432616227
6.84,-0.12113167304895166,-0.07490737656130379,63.525368278853485
6.85,-0.057322187685149205,0.0015179348968456712,63.32319398623376
6.86,-0.09964914630980483,-0.05521488187276129,63.042723103926775
6.87,-0.06833995882463242,-0.00658675321309818,62.69498332062086
6.88,-0.1118367580142911,-0.07490737656130379,62.448330683624796
6.89,-0.02541744500324798,0.028732339118864487,62.25755166931637
6.9,-0.08805708980204739,-0.012956658583789835,61.97708078700938
6.91,0.1039456516576342,0.09648373688075297,61.75248352739002
6.92,0.33363852913886843,0.11442789583989287,61.60655044708088
6.93,0.7060519555504742,0.1132623386869578,61.42716671108374
6.94,-0.18898242581912827,-0.2526548423839018,61.23638769677532
6.95,-0.27657157939517446,-0.09111675278119148,61.06803164946653
6.96,-0.15535482703240439,-0.05753244318848102,60.91107088046904
6.97,-0.00801872532738451,0.02121042958538817,60.75411011147155
6.98,-0.04862282784721747,-0.052897320557041556,60.61920471985076
6.99,0.0041688863771017605,0.023527990901107902,60.496062196164196
7.0,-0.03586093077445698,-0.037853501490088926,60.32770614885541
7.01,0.00880570898020474,0.025845552216827633,60.13692713454699
7.02,-0.0259917303715222,-0.030318038966462197,60.05826295523677
7.03,0.011124120281756229,0.035685023066023676,59.990994054237845
7.04,-0.02309903370169649,-0.02221335085651835,59.856456252239994
7.05,0.029692680522622743,0.048994059393724115,59.755369105930136
7.06,-0.015548244600313198,-0.025696469325173145,59.631858992620636
7.07,0.05172822280158919,0.05652952191735084,59.485925912311494
7.08,0.007082852875382073,-0.009473540115135036,59.31793745462565
7.09,0.06217170857279819,0.06463421002729469,59.19442734131615
7.1,0.02620442865606821,0.00268349204978074,59.149581407316866
7.11,0.08422852068021924,0.07794324635499512,59.11576316200593
7.12,0.06102313783624975,0.02062765100892064,59.149581407316866
7.13,0.13874309100936114,0.11269311310064067,59.46350294531185
7.14,0.11264501149556594,0.06058186597232276,60.249041969545196
7.15,0.2106776508428211,0.1595864590210516,61.472012645083026
7.16,0.1950230571002349,0.10574042915348147,62.94200354723986
7.17,0.2994153751554157,0.20879736625718223,64.43404982677339
7.18,0.29826680441886727,0.17174349118596735,65.73568468162144
7.19,0.378900724090259,0.2510691425363041,66.67818447485227
7.2,0.3481445521449062,0.18448330192735066,67.46372349908562
7.21,0.4009362663692254,0.2510691425363041,68.0132699853883
7.22,0.3133471127931793,0.15321655365035994,68.31616383469495
7.23,0.2959483931173158,0.1850660805038182,68.34998208000587
7.24,0.15207927345039585,0.06752099692933154,68.2937408676953
7.25,0.13121357173643244,0.09937052378278982,68.15920306569745
7.26,0.013442531583307717,-0.010639097268070106,67.82249097107989
7.27,0.037243469624006036,0.04437248975243507,67.45232822077432
7.28,-0.0416463241141084,-0.033218378858649464,67.12701140446805
7.29,0.02388601735451672,0.04610727249168726,66.82411755516141
7.3,-0.039923468009285736,-0.033801157435116996,66.55467436154277
7.31,-0.01091142199721022,0.01542330279116405,66.29662644623542
7.32,-0.039923468009285736,-0.04017106280580865,66.04997380923936
7.33,0.007657138243656295,0.03278468317383641,65.84779951661965
7.34,-0.04628314671721138,-0.03263560028218193,65.73568468162144
7.35,0.009975549545207784,0.04378971117596753,65.67944346931085
7.36,-0.05904504378997187,-0.03611871875083673,65.60114687962358
7.37,-0.01091142199721022,0.041472149860247796,65.544905667313
7.38,-0.052089809885317404,-0.013525884170106962,65.48866445500244
7.39,-0.03294696427617667,0.036267801642491215,65.38794489831551
7.4,-0.07240249605946118,-0.026848473487957807,65.20819357269544
7.41,-0.021354907768419223,0.041472149860247796,64.99499159138738
7.42,-0.07123265549445815,-0.034953161597901655,64.74833895439131
7.43,-0.0022120621592784852,0.05074239512312672,64.44544510508467
7.44,-0.05904504378997187,-0.02800047765074247,64.19842487846567
7.45,-0.010337136628935997,0.03451946591308861,64.00764586415725
7.46,-0.058470758421697654,-0.037853501490088926,63.86208037347105
7.47,-0.001637776791004263,0.03683702722880834,63.80583916116048
7.48,-0.059640598986700696,-0.034953161597901655,63.7495979488499
7.49,0.022737446617968275,0.04032014569746314,63.67130135916263
7.5,0.01924919475141374,-0.01005631869160257,63.69372432616227
7.51,0.07667773157883595,0.033367461750303945,63.82826212816012
7.52,0.10105295498780849,0.016575306953948713,63.94037696315833
7.53,0.13121357173643244,0.10227086367497709,64.01904114246854
7.54,0.04883552613176348,0.02989789627179956,64.1087330104671
7.55,0.06565996043935272,0.08200914340011746,64.17600191146603
7.56,-0.07123265549445815,-0.04422340686078058,64.20982015677697
7.57,-0.03411680484117971,0.025845552216827633,64.17600191146603
7.58,-0.0961821642717049,-0.04654096817650031,64.1087330104671
7.59,-0.04977139858376592,0.014257745638228982,63.98522289715761
7.6,-0.10951834671273962,-0.05926722592773321,63.83965740647141
7.61,-0.050345683952040136,0.019475646846135976,63.637483113851694
7.62,-0.10313739817635936,-0.05059331223147223,63.413253443855275
7.63,-0.04570886134893716,0.025845552216827633,63.12138728323699
7.64,-0.13155388899170606,-0.07954249919274324,62.87473464624093
7.65,-0.045134575980662936,0.05884708323307057,62.683955631932506
7.66,0.06680853117590117,0.05015961654665919,62.40348474962551
7.67,0.42762990107974946,0.22907263952219226,62.11161858900723
7.68,0.5343619002649364,0.01078818015972459,61.909444296387505
7.69,-0.2255239911041325,-0.19649125120061195,61.74145583870167
7.7,-0.3351699567875997,-0.134540533223098,61.51685857908231
7.71,-0.11821770655067135,0.028149560542396954,61.35989781008482
7.72,-0.09733073500825334,-0.04305784970784551,61.23638769677532
7.73,-0.03758378687927964,0.029315117695332023,61.14669582877675
7.74,-0.08516439313222168,-0.033801157435116996,61.02318571546725
7.75,-0.019610781835141956,0.037419805805275874,60.832406701158824
7.76,-0.07065837012618392,-0.027431252064425343,60.67544593216133
7.77,-0.001637776791004263,0.04437248975243507,60.55193581885183
7.78,-0.0468787019139402,-0.018743785378013956,60.41739801685398
7.79,0.016930783449862253,0.05652952191735084,60.29388790354448
7.8,-0.03526537557772816,-0.011791101430854767,60.15935010154663
7.81,0.034925058322454544,0.06463421002729469,60.04723526654842
7.82,-0.015548244600313198,-0.0013688520051911856,59.88990690792799
7.83,0.03549934369072877,0.0594163088193877,59.76639679461849
7.84,-0.012059992733758663,-0.0025344091581262543,59.66567723793157
7.85,0.06391583450607546,0.08374392613936965,59.53077184631078
7.86,0.009975549545207784,0.015992528377481177,59.44107997831221
7.87,0.09233232532142216,0.10515765057701394,59.55356240293336
7.88,0.05927901190297248,0.04494171533875219,59.979598775926554
7.89,0.14629388011074443,0.13353761195196784,60.843801979470115
7.9,0.12308849726677494,0.08431315172568678,62.12264627769558
7.91,0.2158887588141983,0.17696139239387434,63.61506014685205
7.92,0.19849003913833485,0.13005449348331302,65.05123280369794
7.93,0.2930344266190355,0.21633282878080895,66.25178051223614
7.94,0.28899315921266133,0.17522660965462217,67.2280985507779
7.95,0.338296621570426,0.2227027341515006,67.99084701838866
7.96,0.3150912387264565,0.17927895370959407,68.40622329231645
7.97,0.3301715471007685,0.21806761152006113,68.5407610943143
7.98,0.2002341650716121,0.09763574104353763,68.56318406131395
7.99,0.17877290816091987,0.1277369321675933,68.43967394800444
8.0,0.04883552613176348,0.017158085530416246,68.1481753770091
8.01,0.048261240763489255,0.05362918202516358,67.82249097107989
8.02,-0.06078916972324914,-0.03611871875083673,67.54202008877289
8.03,-0.02309903370169649,0.024679995063892565,67.28397217346554
8.04,-0.07761360403083839,-0.039005505652873584,67.02592425815818
8.05,-0.034691090209453934,0.023527990901107902,66.72303040885156
8.06,-0.08456883793549286,-0.04017106280580865,66.44255952654456
8.07,-0.004530473460829974,0.043206932599499995,66.27420347923578
8.08,-0.08342026719894441,-0.05116253781778936,66.21832985654815
8.09,-0.004530473460829974,0.03510224448955614,66.11724271023829
8.1,-0.08748280443377317,-0.0517453163942569,65.98270490824044
8.11,-0.002786347527552707,0.05074239512312672,65.90404072893021
8.12,-0.07297678142773541,-0.029166034803677538,65.88161776193057
8.13,-0.004530473460829974,0.0594163088193877,65.82537654962
8.14,-0.08863137517032162,-0.033801157435116996,65.7018664363105
8.15,-0.04396473541565989,0.029315117695332023,65.50005973331372
8.16,-0.08631296386877012,-0.02626569491149027,65.28685775200566
8.17,-0.034691090209453934,0.03683702722880834,65.05123280369794
8.18,-0.09211962703687615,-0.036687944337153854,64.71452070908038
8.19,-0.022503478504967665,0.039737367120995605,64.37817620408575
8.2,-0.08631296386877012,-0.025696469325173145,64.19842487846567
8.21,-0.03586093077445698,0.035685023066023676,64.09770532177876
8.22,-0.10719993541118812,-0.052897320557041556,64.00764586415725
8.23,-0.0364352161427312,0.028149560542396954,63.9966181754689
8.24,-0.10198882743981093,-0.04422340686078058,64.07528235477912
8.25,-0.03062855297462518,0.036267801642491215,64.17600191146603
8.26,-0.11241104338256533,-0.06043278308066828,64.23224312377661
8.27,-0.03237267890790244,0.02641477780314476,64.31090730308684
8.28,-0.04107203874583418,-0.042475071131377974,64.3892038927741
8.29,0.042454577595383236,0.04262415402303246,64.43404982677339
8.3,0.05870472653469826,-0.0036864133209109154,64.42302213808503
8.31,0.09756470312125395,0.06578621419007935,64.34435795877482
8.32,0.06680853117590117,0.04437248975243507,64.23224312377661
8.33,0.07667773157883595,0.08374392613936965,64.16497422277769
8.34,-0.03817934207600847,-0.025696469325173145,64.06388707646782
8.35,-0.03237267890790244,0.017158085530416246,63.94037696315833
8.36,-0.10430723874136241,-0.04654096817650031,63.783416194160836
8.37,-0.058470758421697654,0.016575306953948713,63.547791245853126
8.38,-0.12866119232188036,-0.05926722592773321,63.25592508523484
8.39,-0.05094123914876896,0.031632679011051754,62.99787716992749
8.4,-0.1269170663886031,-0.05406287770997662,62.82952112261871
8.41,-0.05500377638359772,0.01542330279116405,62.65013738662157
8.42,-0.11300659857929415,-0.052897320557041556,62.40348474962551
8.43,-0.05557806175187194,0.02641477780314476,62.15646452300651
8.44,-0.06310758102480063,-0.0007996264188740589,61.954657820009736
8.45,0.21125193621109534,0.17869617513312655,61.76387880570131
8.46,0.6758913388018503,0.22153717699856554,61.561704513081594
8.47,0.15731165125022764,-0.032066374695864805,61.39334846577281
8.48,-0.40767880198933387,-0.25207206380743424,61.27020594208625
8.49,-0.22031288313275527,-0.02221335085651835,61.12427286177711
8.5,-0.09792629020498217,-0.030318038966462197,60.94452153615703
8.51,-0.011485707365484443,0.04262415402303246,60.77653307847119
8.52,-0.08284598183067018,-0.037270722913621386,60.68647362084968
8.53,-0.01844094127013891,0.037419805805275874,60.61920471985076
8.54,-0.08922693036705043,-0.0482757509157525,60.484666917852905
8.55,-0.012059992733758663,0.03915458854452807,60.338733837543764
8.56,-0.061384724919977963,-0.02279612943298588,60.226619002545554
8.57,0.015782212713313808,0.05362918202516358,60.08068592223641
8.58,-0.05789647305342343,-0.03611871875083673,59.93475284192727
8.59,0.019823480119687962,0.051311620709443846,59.81161031824071
8.6,-0.027161570936525246,-0.014108662746574496,59.71052317193085
8.61,0.03956188092555752,0.05999908739585523,59.575985369933
8.62,-0.001637776791004263,0.0032527176360978667,59.43005228962386
8.63,0.049409811500037704,0.0628994272880425,59.328965143314
8.64,0.020993320684691008,0.02121042958538817,59.272723931003426
8.65,0.08769550271831918,0.09184861424931351,59.22787799700414
8.66,0.05232377799831801,0.033950240326771484,59.385206355624575
8.67,0.14223134287591568,0.12426736668908892,59.93475284192727
8.68,0.12191865670177189,0.07969158208439774,60.955916814468324
8.69,0.2135703475126468,0.1705914870231827,62.324820570315296
8.7,0.20312686174143782,0.13180282921271563,63.83965740647141
8.71,0.302329341653696,0.22153717699856554,65.29825303031696
8.72,0.2855049073461068,0.17117426559965024,66.49880073885514
8.73,0.38064485002353626,0.2516519211127716,67.42990525377468
8.74,0.3446775701068063,0.18274851918809848,68.09193416469853
8.75,0.38121913539181046,0.23601177047920105,68.52936581600301
8.76,0.26925475840679175,0.13063727205978057,68.6977218633118
8.77,0.27912395880972657,0.18216574061163093,68.59700230662487
8.78,0.13642467970780964,0.06346865287435963,68.33858680169459
8.79,0.1167075487303947,0.09011383151006132,68.0246652636996
8.8,0.0041688863771017605,-0.007169531789565715,67.7441943813926
8.81,0.02620442865606821,0.02989789627179956,67.44130053208598
8.82,-0.024821889806519157,-0.019895789540798618,67.12701140446805
8.83,0.012293960846759273,0.02641477780314476,66.83514524384977
8.84,-0.04802727265048865,-0.04537541102356524,66.54364667285442
8.85,0.0024247604438244934,0.01542330279116405,66.33044469154635
8.86,-0.05094123914876896,-0.04884497650206963,66.17311633292591
8.87,0.022163161249694054,0.04032014569746314,66.04997380923936
8.88,-0.03758378687927964,-0.031483596119397265,65.92646369592985
8.89,0.013442531583307717,0.039737367120995605,65.83677182793129
8.9,-0.05266409525359163,-0.03842272707640605,65.75810764862108
8.91,0.02620442865606821,0.053046403448696045,65.64599281362287
8.92,-0.03294696427617667,-0.02279612943298588,65.544905667313
8.93,0.012293960846759273,0.03800258438174341,65.37654962000423
8.94,-0.03586093077445698,-0.015843445485826693,65.11850170469687
8.95,0.0024247604438244934,0.031632679011051754,64.87184906770081
8.96,-0.02541744500324798,-0.0025344091581262543,64.62482884108181
8.97,0.012293960846759273,0.045524493915219726,64.36678092577446
8.98,-0.056726632488420387,-0.025696469325173145,64.14255125577805
8.99,0.005338726942104806,0.042054928436715336,63.98522289715761
9.0,-0.06659583289135516,-0.033218378858649464,63.91795399615869
9.01,0.004743171745375982,0.03800258438174341,63.884503340470694
9.02,-0.054408221186868895,-0.025696469325173145,63.85068509515976
9.03,-0.019036496466867732,0.027580334956079828,63.86208037347105
9.04,-0.06195901028825219,-0.03263560028218193,63.96279993015797
9.05,-0.005679044197378419,0.03278468317383641,64.1201282887784
9.06,-0.06833995882463242,-0.03611871875083673,64.2656937794646
9.07,-0.01091142199721022,0.027580334956079828,64.35575323708612
9.08,-0.05615234712014616,-0.018161006801546423,64.42302213808503
9.09,0.05521647466814372,0.048994059393724115,64.3892038927741
9.1,-0.000467936226001218,-0.019895789540798618,64.29951202477554
9.11,0.12251421189850072,0.06636899276654688,64.22084784546531
9.12,0.07261519434400719,0.02062765100892064,64.1201282887784
9.13,0.1375945202728127,0.09937052378278982,63.95177224146962
9.14,0.017505068818136474,0.00036593073406101,63.71614729316191
9.15,0.04130600685883479,0.05421196060163111,63.45809937785456
9.16,-0.07414662199273846,-0.04654096817650031,63.22247442954685
9.17,-0.037009501511005426,0.023527990901107902,62.95303123592821
9.18,-0.09328946760187919,-0.02626569491149027,62.7174062876205
9.19,-0.04628314671721138,0.01542330279116405,62.45935837231315
9.2,-0.11996183248394862,-0.05638043902569635,62.22373342400544
9.21,-0.03932791281255691,0.023527990901107902,61.99950375400902
9.22,-0.10545580947791086,-0.04595818960003278,61.77490649438966
9.23,-0.04977139858376592,0.017727311116733372,61.53928154608195
9.24,-0.10198882743981093,-0.025113690748705612,61.24778297508661
9.25,0.028544109786074297,0.06926933265873415,61.03458099377854
9.26,0.16718085165316243,0.10110530652204203,60.92209856915739
9.27,0.7773909601872053,0.23139020083791198,60.77653307847119
9.28,0.06159742320452397,-0.12296627963464976,60.57435878585147
9.29,-0.2881849057313865,-0.1524846921822379,60.462243950853264
9.3,-0.24234842541172172,-0.07317259382205159,60.38357977154305
9.31,-0.027161570936525246,0.024679995063892565,60.249041969545196
9.32,-0.0625332956565264,-0.032066374695864805,60.103108889236054
9.33,-0.007423170130655686,0.026997556379612292,59.90130218623928
9.34,-0.05789647305342343,-0.030318038966462197,59.83403328524035
9.35,-0.009741581432207175,0.03451946591308861,59.856456252239994
9.36,-0.058470758421697654,-0.033801157435116996,59.80021503992942
9.37,0.02679998385279703,0.05362918202516358,59.65428195962028
9.38,-0.05383393581859467,-0.02279612943298588,59.519744157622426
9.39,0.007082852875382073,0.03510224448955614,59.396234044312926
9.4,-0.021354907768419223,-0.0025344091581262543,59.19442734131615
9.41,0.037243469624006036,0.05652952191735084,59.026071294007366
9.42,-0.010337136628935997,-0.00021684784240652444,58.9363794260088
9.43,0.02679998385279703,0.048994059393724115,58.83529227969894
9.44,0.007082852875382073,0.011940184322509251,58.72317744470073
9.45,0.05696060060142099,0.07332167671370608,58.59966733139123
9.46,0.04594282946193777,0.042054928436715336,58.54342611908066
9.47,0.09930882905453123,0.09995330235925735,58.655908543701806
9.48,0.07493360564555869,0.05826430465660304,59.08231250631794
9.49,0.15382339938367312,0.13758995600693977,59.92372515323892
9.5,0.13642467970780964,0.09416617556503323,61.12427286177711
9.51,0.23271319312178756,0.183331297764566,62.672560353621215
9.52,0.21125193621109534,0.14279430422469636,64.2656937794646
9.53,0.3255347244976655,0.23832933179492077,65.67944346931085
9.54,0.29826680441886727,0.18216574061163093,66.73442568716284
9.55,0.38004929482680744,0.2510691425363041,67.44130053208598
9.56,0.32321631319611405,0.17579583524093928,67.9011551503901
9.57,0.33597821026887453,0.20417579661589316,68.17059834400874
9.58,0.1921090906019546,0.08374392613936965,68.19302131100838
9.59,0.18630242743384856,0.10920999463198587,67.97981932970032
9.6,0.07435932027728447,0.015992528377481177,67.6655302020824
9.61,0.07957042824866166,0.048994059393724115,67.30639514046518
9.62,-0.01091142199721022,-0.03263560028218193,66.9924736024702
9.63,0.027948554589345476,0.021793208161855707,66.63333854085299
9.64,-0.014973959232038977,-0.037853501490088926,66.18451161123721
9.65,0.024481572551245542,0.011940184322509251,65.80295358262036
9.66,-0.03932791281255691,-0.06043278308066828,65.50005973331372
9.67,0.03432950312572572,0.018310089693200908,65.25303950669472
9.68,0.0035946010088275383,-0.017578228225078887,64.99499159138738
9.69,0.027374269221071255,0.027580334956079828,64.8045801667019
9.7,-0.017292370533590465,-0.027431252064425343,64.70349302039203
9.71,0.028544109786074297,0.025845552216827633,64.60240587408217
9.72,-0.028884427041347912,-0.04017106280580865,64.46786807208431
9.73,0.015186657516584984,0.018310089693200908,64.33333027008648
9.74,-0.021929193136693444,-0.02279612943298588,64.16497422277769
9.75,0.02388601735451672,0.028149560542396954,63.97419520846926
9.76,-0.04107203874583418,-0.041323066968593315,63.783416194160836
9.77,0.0012761897072760492,0.021793208161855707,63.58124190154111
9.78,-0.04570886134893716,-0.033801157435116996,63.34598454285635
9.79,-0.016122529968587422,0.011370958736192125,63.13278256154828
9.8,-0.054408221186868895,-0.03437038302143412,63.09896431623735
9.81,-0.0022120621592784852,0.019475646846135976,63.166233217236275
9.82,-0.04745298728221443,-0.035535940174369195,63.24489739654649
9.83,-0.009167296063932953,0.0032527176360978667,63.33458926454506
9.84,-0.0468787019139402,-0.04422340686078058,63.46912706654291
9.85,-0.0033606328958269292,0.009053397420472396,63.637483113851694
9.86,-0.05557806175187194,-0.04422340686078058,63.783416194160836
9.87,0.03664791442727721,0.033367461750303945,63.92934927446998
9.88,0.03086252108762579,-0.017578228225078887,64.05249179815654
9.89,0.0987132738578024,0.033367461750303945,64.09770532177876
9.9,0.12423706800332338,0.006153057528285131,64.08631004346746
9.91,0.1433799136124641,0.06926933265873415,64.08631004346746
9.92,0.08769550271831918,0.031632679011051754,64.04146410946818
9.93,0.077847572143839,0.04262415402303246,63.83965740647141
9.94,-0.030054267606350958,-0.05059331223147223,63.59263717985241
9.95,-0.009167296063932953,0.008470618844004862,63.401858165543985
9.96,-0.07240249605946118,-0.04769297233928497,63.2335021182352
9.97,-0.04049775337755996,-0.01122187584453764,62.97545420292785
9.98,-0.07818788939911261,-0.05059331223147223,62.661532664932864
9.99,-0.03411680484117971,-0.0013688520051911856,62.36966650431458
