time_s,ECG,NIBP
0.0,-0.24808766337572005,93.68823874060054
0.01,-0.22905402404997013,93.22992461806858
0.02,-0.21912531469781357,92.92438186971395
0.03,-0.21197144114713307,92.0089471510108
0.04,-0.2192120283166097,91.73443608803593
0.05,-0.22510855439474634,91.24628380648498
0.06,-0.21665397656212393,91.36802349528253
0.07,-0.19376158119994635,90.91090289911133
0.08,-0.16731392746712753,90.51345862097816
0.09,-0.14680615662184343,90.20910939898428
0.1,-0.12287319783411231,90.14823955458552
0.11,-0.09781296200203154,90.17807771360452
0.12,-0.06741983861398894,90.11720786920574
0.13,-0.028788921440314245,89.56818574325601
0.14,0.02163504788963375,89.32351283930015
0.15,0.07990659972063126,89.23161130952161
0.16,0.14489845700832862,88.9881319319265
0.17,0.20074202751303458,88.0416655278436
0.18,0.2479142361381278,87.64541477607118
0.19,0.2611814198139353,87.64541477607118
0.2,0.2052511356904332,87.18710065353923
0.21,0.10314584955799336,87.247970497938
0.22,0.0061133101251269716,87.247970497938
0.23,-0.05653727945507497,87.98079568344482
0.24,-0.09638218729189543,94.11552117775271
0.25,-0.1088255915891397,105.31437902076652
0.26,-0.1129878452913538,118.31546166852837
0.27,-0.10700460559442103,129.57638288230171
0.28,-0.1007178682317018,137.755619032592
0.29,-0.09256678806486585,140.16654228132776
0.3,-0.0879709662686711,140.16654228132776
0.31,-0.1351865317031624,139.7392598441756
0.32,-0.15500059359807747,138.1518697843644
0.33,-0.14893064028234856,136.35083850597712
0.34,-0.1452019546741151,133.63556603524745
0.35,-0.1482802881413776,120.39100400989052
0.36,-0.14511524105531895,117.27828726102767
0.37,-0.1384816492174152,114.50095141953848
0.38,-0.13366904337423016,112.05899648542292
0.39,-0.13275855037687082,109.70894308108592
0.4,-0.1315879165231231,107.78736564026185
0.41,-0.13128441885733666,107.63459426608453
0.42,-0.13869843326440554,105.7118232988997
0.43,-0.14346768229819254,104.12443323908852
0.44,-0.14663272938425118,102.53823670563808
0.45,-0.14416139124856156,100.85894511604836
0.46,-0.14177676673166806,98.99823751962306
0.47,-0.14169005311287192,97.7772600525653
0.48,-0.14424810486735767,96.09916198933632
0.49,-0.14273061653842545,94.81731467787976
0.5,-0.14190683715986224,93.71807689961955
0.51,-0.142427118872639,92.52813111794153
0.52,-0.14164669630347387,92.13188036616911
0.53,-0.1413431986376874,92.16171852518812
0.54,-0.14706629747823183,92.46726127354276
0.55,-0.1606803356292238,92.46726127354276
0.56,-0.15521737764506777,92.52813111794153
0.57,-0.13908864454898812,92.52813111794153
0.58,-0.10947594373011066,92.89454371069495
0.59,-0.07231915807597013,94.14535933677172
0.6,-0.06872054289593085,96.64818411528606
0.61,-0.08203108338113638,98.9373676752243
0.62,-0.09755282114564316,99.05910736402184
0.63,-0.12135570950518008,98.87530430446476
0.64,-0.12057528693601494,99.02807567864207
0.65,-0.1126409908161693,98.84546614544576
0.66,-0.1121640659127906,98.78459630104697
0.67,-0.11108014567783901,102.1407924275049
0.68,-0.14580895000568797,100.92100848680789
0.69,-0.2701129225499364,99.70003101975011
0.7,-0.1836594446101975,98.9672058342433
0.71,0.7395370979027712,97.80709821158429
0.72,2.058624667029459,96.52644442648851
0.73,1.9840509548647896,95.67187955218414
0.74,0.6356108257756128,94.93905436667731
0.75,-0.2109742345309776,94.05345780699318
0.76,-0.2920081112959585,93.71807689961955
0.77,-0.2138357839512498,93.32182614784712
0.78,-0.17789298896025504,92.98525171411272
0.79,-0.16562301190060305,92.52813111794153
0.8,-0.1582957111123303,91.76546777341571
0.81,-0.14945092199512533,91.70459792901693
0.82,-0.14346768229819254,90.94074105813034
0.83,-0.14498517062712477,90.94074105813034
0.84,-0.13856836283621135,90.60536015075671
0.85,-0.13059070990696764,90.05633802480696
0.86,-0.12465082701943292,89.7818269618321
0.87,-0.11160042739061578,89.72095711743333
0.88,-0.09980737523434247,89.35454452467992
0.89,-0.08987866588218589,88.8353605577492
0.9,-0.077001693490961,88.80552239873019
0.91,-0.05475965026975436,88.46894796499578
0.92,-0.021721761508429877,88.07269721322336
0.93,0.03178054128878064,87.58454493167241
0.94,0.09807310285841991,87.64541477607118
0.95,0.16649014808856433,87.21813233891899
0.96,0.22749317891163984,86.97345943496313
0.97,0.2748388147743253,86.82188158714658
0.98,0.27470874434613113,86.82188158714658
0.99,0.21028052558060858,87.15726249452023
1.0,0.11368155424172283,89.72095711743333
1.01,0.027965142061751037,89.6588937466738
1.02,-0.02584065840124592,89.72095711743333
1.03,-0.05389251408179309,97.7772600525653
1.04,-0.06694291371061024,111.23546329649832
1.05,-0.07440028492707718,125.57806957375473
1.06,-0.07357650554851397,136.80915262850908
1.07,-0.07548420516202878,139.3119774070234
1.08,-0.07639469815938811,136.50360988015444
1.09,-0.07851918181989323,136.41290187673667
1.1,-0.07123523784101854,136.44274003575566
1.11,-0.06763662266097925,136.5346415655342
1.12,-0.0675932658515812,136.5346415655342
1.13,-0.06720305456699861,132.72013131654433
1.14,-0.06499185728769738,129.33170997834586
1.15,-0.0646016460031148,125.12094897758355
1.16,-0.06529535495348382,122.03807038773972
1.17,-0.0655554958098722,118.74274410568056
1.18,-0.0708016697470379,116.14921132374845
1.19,-0.07132195145981467,114.13453882678508
1.2,-0.0746170689740675,111.60187588925173
1.21,-0.07535413473383458,109.77100645184545
1.22,-0.07422685768948492,108.03084501785695
1.23,-0.07015131760606695,104.85725842459533
1.24,-0.0755709187808249,103.82008401709464
1.25,-0.07899610672327192,102.20166227190369
1.26,-0.08103387676498092,100.92100848680789
1.27,-0.08077373590859253,99.7609008641489
1.28,-0.0773485479661455,98.17351080433771
1.29,-0.07119188103162047,96.98356502265969
1.3,-0.0737932895955043,95.70171771120314
1.31,-0.08931502736001107,95.33530511844974
1.32,-0.09863674138059475,95.24459711503195
1.33,-0.10496683555271204,95.30546695943073
1.34,-0.10938923011131453,95.3961749628485
1.35,-0.11671653089958728,95.21356542965218
1.36,-0.10496683555271204,95.73274939658292
1.37,-0.09694582581407027,96.52644442648851
1.38,-0.06520864133468769,97.71639020816652
1.39,-0.03399173856808188,99.63916117535135
1.4,-0.04019176231200498,99.72986917876912
1.41,-0.05679742031146335,103.39280157994246
1.42,-0.08268143552210733,103.7281824873161
1.43,-0.09885352542758506,104.09459508006951
1.44,-0.0973793939080509,103.82008401709464
1.45,-0.0887947456472343,102.96551914279027
1.46,-0.08853460479084592,102.1407924275049
1.47,-0.09187307911449683,101.34709739759931
1.48,-0.15773207259015548,100.06644361250352
1.49,-0.2756625941528885,98.90633598984452
1.5,0.013960892626176488,97.83812989696406
1.51,1.2008535498981683,97.01459670803946
1.52,2.2386854964596172,95.73274939658292
1.53,1.6084075582399664,95.30546695943073
1.54,0.2649534622315668,94.51177192952514
1.55,-0.2640429692342075,93.99258796259441
1.56,-0.23226242794542684,94.2062291811705
1.57,-0.1686579885584675,93.59633721082199
1.58,-0.15664815235520388,93.32182614784712
1.59,-0.15426352783831038,92.86351202531517
1.6,-0.1475865791910086,92.89454371069495
1.61,-0.13926207178658037,92.1927502105679
1.62,-0.1275557332491032,92.16171852518812
1.63,-0.11485218809547054,91.30715365088375
1.64,-0.10860880754214938,91.36802349528253
1.65,-0.10019758651892503,90.97177274351012
1.66,-0.08719054369950595,90.60536015075671
1.67,-0.08216115380933058,90.11720786920574
1.68,-0.077001693490961,90.14823955458552
1.69,-0.06395129386214385,89.75079527645234
1.7,-0.04539457943977262,89.32351283930015
1.71,-0.016432230761866114,88.92726208752774
1.72,0.03481551794664509,88.52981780939456
1.73,0.09759617795504122,88.0118273688246
1.74,0.15326632122215492,87.95095752442582
1.75,0.20494763802464674,87.52367508727363
1.76,0.2572793069681096,87.31003386869754
1.77,0.2921815385335508,86.85171974616559
1.78,0.26768494122364483,86.91258959056437
1.79,0.17719928000988602,86.82188158714658
1.8,0.07093174017523209,87.31003386869754
1.81,-0.00598323969693278,90.91090289911133
1.82,-0.06382122343394965,91.00161090252912
1.83,-0.09807310285841991,90.97177274351012
1.84,-0.10271228146401273,100.88997680142813
1.85,-0.09742275071744896,113.92089760820897
1.86,-0.10076122504109987,126.70833903739474
1.87,-0.10145493399146888,136.41290187673667
1.88,-0.0973793939080509,138.12083809898462
1.89,-0.09837660052420637,134.42926106515304
1.9,-0.10249549741702241,134.51996906857084
1.91,-0.09616540324490512,130.79736034935948
1.92,-0.09447448767838064,126.79904704081251
1.93,-0.09508148300995353,123.19817801039872
1.94,-0.09026887716676847,119.62714713900392
1.95,-0.08766746860288464,116.94171282729327
1.96,-0.08745068455589433,113.98176745260776
1.97,-0.09135279740172006,111.72361557804929
1.98,-0.09104929973593362,109.67910492206691
1.99,-0.08771082541228271,108.09171486225573
2.0,-0.07791218648832034,106.10807405067212
2.01,-0.07565763239962102,104.5218775172217
2.02,-0.08008002695822351,102.96551914279027
2.03,-0.08675697560552531,101.71350999035273
2.04,-0.08185765614354412,100.46269436427595
2.05,-0.0811639471931751,99.02807567864207
2.06,-0.08575976898936985,97.80709821158429
2.07,-0.09430106044078838,96.22090167813387
2.08,-0.0994171639497599,94.96889252569632
2.09,-0.10375284488956625,94.45090208512636
2.1,-0.10956265734890679,94.48074024414537
2.11,-0.1135948406229267,94.48074024414537
2.12,-0.12230955931193749,94.45090208512636
2.13,-0.1379180106952404,94.48074024414537
2.14,-0.14073620330611453,94.84715283689877
2.15,-0.13340890251784177,95.79361924098168
2.16,-0.12152913674277234,95.76258755560193
2.17,-0.08406885342284537,95.76258755560193
2.18,-0.06559885261927026,95.73274939658292
2.19,-0.08060030867100028,95.73274939658292
2.2,-0.10496683555271204,95.67187955218414
2.21,-0.13679073365089073,105.74166145791871
2.22,-0.13679073365089073,105.31437902076652
2.23,-0.13106763481034633,105.40628055054506
2.24,-0.12894315114984123,104.91812826899411
2.25,-0.13115434842914248,103.66731264291732
2.26,-0.14247047568203708,102.99535730180928
2.27,-0.23889601978333058,101.62280198693495
2.28,-0.311431961906291,100.85894511604836
2.29,0.1879951255500039,99.7907390231679
2.3,1.4165103198441367,98.63182492686965
2.31,1.9553487470432713,96.61715242990628
2.32,0.9362469421417859,96.16003183373509
2.33,-0.1569950068303884,95.3961749628485
2.34,-0.3668419643170163,94.5428036149049
2.35,-0.2587967952970418,94.14535933677172
2.36,-0.19970146408748105,93.77894674401831
2.37,-0.17611535977493445,93.26095630344835
2.38,-0.15950970177547608,92.46726127354276
2.39,-0.15088169670526141,92.13188036616911
2.4,-0.14403132082036738,91.82633761781447
2.41,-0.14329425506060028,91.33818533626352
2.42,-0.1530495371751646,90.91090289911133
2.43,-0.14216697801625064,90.54449030635793
2.44,-0.12187599121795685,90.05633802480696
2.45,-0.10904237563613002,90.23894755800329
2.46,-0.09365070829981743,89.72095711743333
2.47,-0.07166880593499918,89.68992543205356
2.48,-0.047909274384860305,89.23161130952161
2.49,-0.017993075900196404,88.8353605577492
2.5,0.02783507163355685,88.46894796499578
2.51,0.08463249194502019,88.52981780939456
2.52,0.15556423212025228,87.76715446486874
2.53,0.22489177034775604,87.64541477607118
2.54,0.2852010922204625,87.247970497938
2.55,0.32699705648019584,86.88275143154536
2.56,0.32066696230807856,86.57720868319072
2.57,0.24509604352725367,86.08905640163977
2.58,0.13189141418890954,86.54617699781096
2.59,0.029656057628275518,86.54617699781096
2.6,-0.03880434441126694,86.51633883879195
2.61,-0.07600448687480553,86.48530715341218
2.62,-0.09074580207014717,87.58454493167241
2.63,-0.09959059118735215,94.60367345930368
2.64,-0.10019758651892503,105.68079161351993
2.65,-0.09759617795504122,119.17002654283274
2.66,-0.09599197600731287,138.09099993996563
2.67,-0.09408427639379807,136.04648928398325
2.68,-0.0908325156889433,132.26181719401237
2.69,-0.09070244526074911,128.81371953777588
2.7,-0.09330385382463292,128.78268785239612
2.71,-0.09343392425282711,128.8435576967949
2.72,-0.08680033241492338,125.12094897758355
2.73,-0.08372199894766086,121.6418196359673
2.74,-0.07691497987216488,118.37633151292715
2.75,-0.07119188103162047,115.35551629384285
2.76,-0.07544084835263071,112.36453923377756
2.77,-0.07565763239962102,110.19828888899764
2.78,-0.0727093693605527,108.03084501785695
2.79,-0.06850375884894053,106.10807405067212
2.8,-0.07227580126657206,104.5517156762407
2.81,-0.07990659972063126,102.53823670563808
2.82,-0.08298493318789378,100.4937260496557
2.83,-0.09421434682199226,99.02807567864207
2.84,-0.10505354917150816,97.34997761541311
2.85,-0.1067878215474307,95.3961749628485
2.86,-0.10904237563613002,94.08448949237295
2.87,-0.11038643672746999,92.52813111794153
2.88,-0.11602282194921826,91.30715365088375
2.89,-0.12421725892545228,90.94074105813034
2.9,-0.12439068616304454,90.87987121373158
2.91,-0.1172801694217621,91.3990551806623
2.92,-0.10869552116094551,91.76546777341571
2.93,-0.0804702382428061,91.85617577683348
2.94,-0.052808593846841494,93.32182614784712
2.95,-0.06256387596140581,95.73274939658292
2.96,-0.08506606003900083,98.9373676752243
2.97,-0.11888437136949045,102.1109542684859
2.98,-0.1319347709983076,102.17182411288468
2.99,-0.13310540485205533,102.26372564266322
3.0,-0.13115434842914248,102.1109542684859
3.01,-0.13098092119155022,102.1407924275049
3.02,-0.1375711562200559,101.7743798347515
3.03,-0.2057280605938119,100.5844340530735
3.04,-0.31494386346753417,99.33361842699671
3.05,0.0014307747101360996,98.1436726453187
3.06,1.1287078190597903,97.37981577443212
3.07,1.980192198828362,96.16003183373509
3.08,1.2422159460639208,96.1898699927541
3.09,0.008194436976234025,96.16003183373509
3.1,-0.36493426470350154,96.1898699927541
3.11,-0.2693758567901693,96.09916198933632
3.12,-0.1947587878161018,95.30546695943073
3.13,-0.1617642558641754,94.48074024414537
3.14,-0.1469795838594357,93.68823874060054
3.15,-0.1391320013583862,92.98525171411272
3.16,-0.1286396534840548,90.5755219917377
3.17,-0.11736688304055823,90.08617618382597
3.18,-0.1121640659127906,89.75079527645234
3.19,-0.10349270403317787,89.32351283930015
3.2,-0.08810103669686528,89.2017731505026
3.21,-0.07301286702633915,88.92726208752774
3.22,-0.06551213900047413,88.86639224312896
3.23,-0.04439737282361715,88.40807812059701
3.24,-0.018079789518992532,88.43910980597677
3.25,0.010969272777710096,88.46894796499578
3.26,0.045004368155190044,88.10253537224237
3.27,0.08918495693181688,87.70628462046996
3.28,0.14606909086207634,87.67525293509019
3.29,0.20377700417089903,87.247970497938
3.3,0.26061778129176044,86.91258959056437
3.31,0.31472707942054384,86.08905640163977
3.32,0.3247858592008946,86.05802471626
3.33,0.26525695989735326,85.72264380888636
3.34,0.15270268269998008,86.02818655724099
3.35,0.04561136348676293,86.51633883879195
3.36,-0.02532037668846916,90.91090289911133
3.37,-0.06477507324070705,100.92100848680789
3.38,-0.08268143552210733,100.9508466458269
3.39,-0.09113601335472973,114.4400815751397
3.4,-0.09529826705694384,126.73817719641374
3.41,-0.09950387756855603,135.2217625686979
3.42,-0.10331927679558561,138.9145331288902
3.43,-0.10323256317678949,138.45741253271905
3.44,-0.09365070829981743,137.29730491006003
3.45,-0.08632340751154467,136.0154575986035
3.46,-0.0878408958404769,133.6045343498677
3.47,-0.08723390050890402,130.33904622682755
3.48,-0.0804702382428061,126.4326344480591
3.49,-0.07253594212296044,122.92366694742385
3.5,-0.06893732694292116,119.59730897998492
3.51,-0.0728394397887469,116.45356054574232
3.52,-0.07574434601841715,113.67622470425312
3.53,-0.0789093931044758,111.23546329649832
3.54,-0.08298493318789378,108.88540989216132
3.55,-0.08051359505220415,106.80986755079917
3.56,-0.07570098920901909,105.43731223592484
3.57,-0.07309958064513528,103.75802064633511
3.58,-0.08185765614354412,102.17182411288468
3.59,-0.0903555907855646,100.1273134569023
3.6,-0.09599197600731287,98.63182492686965
3.61,-0.09026887716676847,96.67802227430506
3.62,-0.08714718689010789,94.84715283689877
3.63,-0.08372199894766086,93.71807689961955
3.64,-0.09304371296824454,90.97177274351012
3.65,-0.10999622544288741,90.48362046195915
3.66,-0.11003958225228548,90.94074105813034
3.67,-0.09820317328661411,91.3990551806623
3.68,-0.08021009738641771,91.36802349528253
3.69,-0.04283652768528686,91.30715365088375
3.7,-0.02701129225499364,92.52813111794153
3.71,-0.03672321756015989,95.33530511844974
3.72,-0.062347091914415495,99.36345658601572
3.73,-0.09612204643550706,102.07992258310614
3.74,-0.10687453516622683,102.20166227190369
3.75,-0.10899901882673195,102.1109542684859
3.76,-0.11541582661764536,102.07992258310614
3.77,-0.11519904257065505,102.17182411288468
3.78,-0.1320648414265018,100.82910695702935
3.79,-0.23000787385672752,100.9508466458269
3.8,-0.2533338373128858,99.70003101975011
3.81,0.3784615892356974,99.7907390231679
3.82,1.6200705399680455,98.90633598984452
3.83,1.9246954827988405,97.7772600525653
3.84,0.779598789786582,96.61715242990628
3.85,-0.2008720979412288,95.73274939658292
3.86,-0.32964182185347773,94.51177192952514
3.87,-0.2182581785098523,94.05345780699318
3.88,-0.14945092199512533,93.26095630344835
3.89,-0.11888437136949045,92.83367386629617
3.9,-0.1121640659127906,92.1927502105679
3.91,-0.10314584955799336,91.82633761781447
3.92,-0.09300035615884647,91.33818533626352
3.93,-0.0945178444877787,90.94074105813034
3.94,-0.09248007444606972,90.5755219917377
3.95,-0.07908282034206805,90.51345862097816
3.96,-0.06750655223278507,90.11720786920574
3.97,-0.05714427478664786,89.68992543205356
3.98,-0.049470119523190595,88.86639224312896
3.99,-0.03130361638540194,88.89623040214796
4.0,-0.004422394558602489,88.43910980597677
4.01,0.026404296923420747,88.40807812059701
4.02,0.06074288996668714,87.67525293509019
4.03,0.11342141338533444,88.0416655278436
4.04,0.17095589945656486,87.15726249452023
4.05,0.22211693454627995,87.27900218331777
4.06,0.2795213501893162,87.27900218331777
4.07,0.3258697794358462,86.88275143154536
4.08,0.3171117039374374,86.48530715341218
4.09,0.22523862482294052,86.45546899439317
4.1,0.11238084995978091,86.48530715341218
4.11,0.026100799257634304,86.51633883879195
4.12,-0.026924578636197512,86.45546899439317
4.13,-0.06442821876552254,86.45546899439317
4.14,-0.08688704603371951,86.85171974616559
4.15,-0.09594861919791481,88.86639224312896
4.16,-0.09915702309337152,98.1436726453187
4.17,-0.09980737523434247,110.83921254472591
4.18,-0.10188850208544951,140.47089150332164
4.19,-0.0994171639497599,140.10447891056825
4.2,-0.09078915887954524,140.135510595948
4.21,-0.08706047327131176,138.12083809898462
4.22,-0.08398213980404924,135.28263241309665
4.23,-0.08363528532886473,131.92643628663873
4.24,-0.0798632429112332,128.81371953777588
4.25,-0.0746170689740675,125.2426886663811
4.26,-0.07596113006540747,118.8644837944781
4.27,-0.07539749154323265,115.69089720121649
4.28,-0.07721847753795132,113.21910410808194
4.29,-0.0789093931044758,110.9299205481437
4.3,-0.0804702382428061,109.43443201811105
4.31,-0.07682826625336875,107.26818167333111
4.32,-0.07253594212296044,105.31437902076652
4.33,-0.07119188103162047,103.78905233171487
4.34,-0.06807019075495989,102.62894470905587
4.35,-0.07765204563193195,100.52356420867471
4.36,-0.09078915887954524,98.99823751962306
4.37,-0.09291364254005034,96.95253333727993
4.38,-0.09568847834152643,95.70171771120314
4.39,-0.09967730480614827,94.11552117775271
4.4,-0.11038643672746999,93.29079446246736
4.41,-0.1150256153330628,92.46726127354276
4.42,-0.10314584955799336,92.5591628033213
4.43,-0.08857796160024399,92.89454371069495
4.44,-0.06291073043659032,93.32182614784712
4.45,-0.026404296923420747,93.29079446246736
4.46,-0.03290781833313029,95.27443527405096
4.47,-0.05246173937165698,98.9672058342433
4.48,-0.06954432227449406,102.1109542684859
4.49,-0.09061573164195298,104.58274736162046
4.5,-0.09490805577236128,104.42997598744314
4.51,-0.09104929973593362,104.674648891399
4.52,-0.08966188183519558,104.5517156762407
4.53,-0.09230664720847746,103.78905233171487
4.54,-0.11992493479504399,102.96551914279027
4.55,-0.23867923573634026,101.62280198693495
4.56,-0.16475587571264177,100.4937260496557
4.57,0.6891564853822213,99.39448827139549
4.58,1.9308087929239675,98.20454248971747
4.59,1.904014284715964,98.17351080433771
4.6,0.6358709666320012,98.17351080433771
4.61,-0.19723012595179143,97.01459670803946
4.62,-0.2684220069834119,96.22090167813387
4.63,-0.16488594614083596,95.27443527405096
4.64,-0.1256046768261903,94.60367345930368
4.65,-0.11003958225228548,94.02361964797417
4.66,-0.10288570870160499,93.626175369841
4.67,-0.08996537950098202,92.83367386629617
4.68,-0.07340307831092172,92.5591628033213
4.69,-0.06824361799255214,92.16171852518812
4.7,-0.06447157557492061,91.82633761781447
4.71,-0.051030964661520885,91.27731549186474
4.72,-0.037286856082334716,91.00161090252912
4.73,-0.024713381356896266,90.48362046195915
4.74,-0.009668568495768188,90.11720786920574
4.75,0.0026014085638838176,89.6588937466738
4.76,0.010275563827341079,89.23161130952161
4.77,0.033384743236508994,89.29367468028114
4.78,0.06876389970532891,88.8353605577492
4.79,0.11606617875861633,88.40807812059701
4.8,0.17052233136258424,88.46894796499578
4.81,0.21661061975272586,88.10253537224237
4.82,0.26881221826799445,87.76715446486874
4.83,0.3040179474992221,87.247970497938
4.84,0.28407381517611285,87.31003386869754
4.85,0.20390707459909324,87.27900218331777
4.86,0.11251092038797511,87.73731630584973
4.87,0.031173545957207748,90.08617618382597
4.88,-0.02237211364940083,90.11720786920574
4.89,-0.040408546358995295,98.08280280091992
4.9,-0.05046732613934606,110.90008238912469
4.91,-0.0641247210997361,124.4489936364755
4.92,-0.06676948647301799,136.07632744300224
4.93,-0.06980446313088244,136.07632744300224
4.94,-0.07244922850416431,139.3119774070234
4.95,-0.07028138803426114,137.26627322468028
4.96,-0.06637927518843541,133.66540419426647
4.97,-0.06321422810237677,129.66828441208025
4.98,-0.06403800748093998,125.57806957375473
4.99,-0.06629256156963928,125.51719972935597
5.0,-0.05991911058812393,125.57806957375473
5.01,-0.05510650474493887,121.58094979156853
5.02,-0.06230373510501743,117.64350632742033
5.03,-0.06911075418051342,114.8972021713109
5.04,-0.07205901721958174,111.72361557804929
5.05,-0.07695833668156293,109.77100645184545
5.06,-0.08090380633678672,108.1525847066545
5.07,-0.08489263280140857,106.44464848440651
5.08,-0.07808561372591259,105.28454086174752
5.09,-0.07552756197142683,104.12443323908852
5.1,-0.07613455730299973,102.96551914279027
5.11,-0.06989117674967857,103.05622714620806
5.12,-0.0641247210997361,101.74454167573249
5.13,-0.06321422810237677,100.15715161592131
5.14,-0.06689955690121217,99.27274858259793
5.15,-0.07435692811767912,97.74622836718552
5.16,-0.09469127172537095,96.61715242990628
5.17,-0.115849394711626,95.27443527405096
5.18,-0.12200606164615103,94.87818452227854
5.19,-0.1099095118240913,94.87818452227854
5.2,-0.10076122504109987,94.84715283689877
5.21,-0.07804225691651452,95.3663368038295
5.22,-0.056277138598686584,96.16003183373509
5.23,-0.064731716431309,98.20454248971747
5.24,-0.081770942524748,101.28622755320055
5.25,-0.10964937096770291,101.37812908297909
5.26,-0.12391376125966584,101.3172592385803
5.27,-0.12057528693601494,101.3172592385803
5.28,-0.11051650715566418,105.3454107061463
5.29,-0.10631089664405201,104.58274736162046
5.3,-0.1113402865342274,103.42263973896146
5.31,-0.15014463094549432,102.1109542684859
5.32,-0.2635226875214307,101.28622755320055
5.33,-0.11541582661764536,100.15715161592131
5.34,0.847755694160338,99.05910736402184
5.35,2.0291853934481736,98.17351080433771
5.36,1.8075453838052726,97.01459670803946
5.37,0.5020718528295768,96.58731427088728
5.38,-0.24652681823738978,95.70171771120314
5.39,-0.28524444902986057,95.30546695943073
5.4,-0.19016296601990706,94.51177192952514
5.41,-0.1597264858224664,94.51177192952514
5.42,-0.15036141499248465,94.17639102215149
5.43,-0.14385789358277512,93.3826959922459
5.44,-0.13054735309756957,92.89454371069495
5.45,-0.12304662507170457,92.43622958816299
5.46,-0.11702002856537372,92.16171852518812
5.47,-0.10908573244552808,91.73443608803593
5.48,-0.10206192932304177,91.36802349528253
5.49,-0.09204650635208908,90.51345862097816
5.5,-0.08103387676498092,90.60536015075671
5.51,-0.07075831293763983,90.05633802480696
5.52,-0.06338765533996903,90.23894755800329
5.53,-0.04842955609763707,89.68992543205356
5.54,-0.026014085638838176,89.72095711743333
5.55,0.009148286782991425,89.29367468028114
5.56,0.05848833587798783,88.8353605577492
5.57,0.10925915968312033,88.86639224312896
5.58,0.17524822358697317,88.52981780939456
5.59,0.23941630149610735,88.07269721322336
5.6,0.27197726535405314,88.0118273688246
5.61,0.24158414196601052,88.378239961578
5.62,0.15261596908118397,89.32351283930015
5.63,0.05788134054641494,94.51177192952514
5.64,-0.021158122986255048,104.97899811339288
5.65,-0.06659605923542573,118.40736319830691
5.66,-0.08996537950098202,130.76632866397972
5.67,-0.09937380714036183,139.67719647341605
5.68,-0.10795845540117843,143.79724947076056
5.69,-0.11207735229399447,143.7065414673428
5.7,-0.11008293906168354,143.67550978196303
5.71,-0.11229413634098478,143.67550978196303
5.72,-0.11012629587108161,143.7363796263618
5.73,-0.1059640421688675,143.00474796721574
5.74,-0.1059640421688675,141.75273881477818
5.75,-0.10743817368840167,140.50192318870143
5.76,-0.10375284488956625,125.6091012591345
5.77,-0.09946052075915796,122.49638451027167
5.78,-0.09529826705694384,119.23089638723151
5.79,-0.08935838416940912,116.54546207552086
5.8,-0.09065908845135104,114.0736689823863
5.81,-0.09672904176707994,112.42540907817633
5.82,-0.09720596667045865,110.83921254472591
5.83,-0.09278357211185616,109.80084461086446
5.84,-0.08836117755325366,108.5189972994079
5.85,-0.08038352462400997,106.8719309215587
5.86,-0.07769540244133001,105.83356298769725
5.87,-0.08363528532886473,104.09459508006951
5.88,-0.08771082541228271,102.93448745741051
5.89,-0.08732061412770015,101.40916076835886
5.9,-0.08242129466571896,100.09628177152253
5.91,-0.08307164680668991,98.87530430446476
5.92,-0.08103387676498092,98.47905355269233
5.93,-0.07860589543868936,98.20454248971747
5.94,-0.07752197520373776,98.6007932414899
5.95,-0.0798632429112332,98.51008523807211
5.96,-0.07383664640490235,98.6007932414899
5.97,-0.07587441644661135,98.57095508247089
5.98,-0.08810103669686528,98.66166308588866
5.99,-0.08567305537057372,98.99823751962306
6.0,-0.08025345419581577,100.09628177152253
6.01,-0.06516528452528964,102.05008442408713
6.02,-0.034165165805674136,102.1407924275049
6.03,-0.024453240500507886,102.1109542684859
6.04,-0.04868969695402545,102.1109542684859
6.05,-0.07886603629507774,105.98633436187457
6.06,-0.1120339954845964,105.74166145791871
6.07,-0.11589275152102407,104.97899811339288
6.08,-0.10639761026284814,103.78905233171487
6.09,-0.10197521570424564,102.59910655003686
6.1,-0.10271228146401273,102.56807486465709
6.11,-0.1126409908161693,102.44633517585955
6.12,-0.19241752010860638,102.56807486465709
6.13,-0.2777870778133936,101.28622755320055
6.14,0.1722566037385068,100.1273134569023
6.15,1.4505020584122186,99.27274858259793
6.16,2.2891094657895654,98.47905355269233
6.17,1.476819641716843,97.65552036376774
6.18,0.18348601737260525,96.61715242990628
6.19,-0.2705898474533151,96.09916198933632
6.2,-0.21470292013921108,95.76258755560193
6.21,-0.14997120370790207,95.24459711503195
6.22,-0.13670402003209461,94.93905436667731
6.23,-0.13436275232459918,94.51177192952514
6.24,-0.12608160172956903,94.08448949237295
6.25,-0.12213613207434523,93.68823874060054
6.26,-0.11944800989166529,93.26095630344835
6.27,-0.11186056824700415,92.49709943256177
6.28,-0.10687453516622683,92.2225883695869
6.29,-0.09967730480614827,91.82633761781447
6.3,-0.09326049701523485,91.30715365088375
6.31,-0.08519613046719503,90.97177274351012
6.32,-0.08476256237321439,90.94074105813034
6.33,-0.08090380633678672,90.5755219917377
6.34,-0.060222608253910376,90.54449030635793
6.35,-0.02644765373281881,90.11720786920574
6.36,0.019597277847924758,89.41541436907869
6.37,0.06785340670796958,88.0416655278436
6.38,0.11793052156273306,87.61438309069142
6.39,0.17147618116934163,87.67525293509019
6.4,0.22124979835831868,87.64541477607118
6.41,0.2498219357516426,87.61438309069142
6.42,0.2209896575019303,87.64541477607118
6.43,0.14090963054370678,87.61438309069142
6.44,0.04855962652583126,87.64541477607118
6.45,-0.018600071231769294,88.86639224312896
6.46,-0.059225401637754915,93.99258796259441
6.47,-0.0855863417517776,104.94915995437387
6.48,-0.09477798534416708,118.00991892017373
6.49,-0.09724932347985671,117.94904907577497
6.5,-0.0969024690046722,118.07078876457251
6.51,-0.09330385382463292,118.0409506055535
6.52,-0.08857796160024399,118.07078876457251
6.53,-0.08597655303636016,140.50192318870143
6.54,-0.09044230440436073,137.29730491006003
6.55,-0.09217657678028326,133.17725191271552
6.56,-0.08671361879612725,128.90562106755442
6.57,-0.08562969856117567,124.81540622922891
6.58,-0.09096258611713749,121.33627688761267
6.59,-0.09252343125546778,117.98008076115472
6.6,-0.08957516821639945,115.59899567143795
6.61,-0.08562969856117567,113.67622470425312
6.62,-0.0851094168483989,112.51731060795488
6.63,-0.08077373590859253,110.86905070374492
6.64,-0.08333178766307829,109.70894308108592
6.65,-0.08758075498408853,108.45812745500913
6.66,-0.09456120129717677,107.29801983235012
6.67,-0.09967730480614827,105.7118232988997
6.68,-0.09672904176707994,104.5218775172217
6.69,-0.09564512153212835,103.33073820918293
6.7,-0.09655561452948769,101.7743798347515
6.71,-0.09685911219527414,100.4937260496557
6.72,-0.09599197600731287,99.72986917876912
6.73,-0.09391084915620582,99.30258674161693
6.74,-0.10067451142230374,99.33361842699671
6.75,-0.10626753983465395,99.7907390231679
6.76,-0.10561718769368299,99.7609008641489
6.77,-0.1037094880801682,99.7907390231679
6.78,-0.10349270403317787,99.7907390231679
6.79,-0.10579061493127524,100.4937260496557
6.8,-0.10795845540117843,101.40916076835886
6.81,-0.11068993439325643,102.87361761301173
6.82,-0.10947594373011066,103.02638898718905
6.83,-0.10813188263877069,103.02638898718905
6.84,-0.11160042739061578,102.96551914279027
6.85,-0.1183640896567137,107.20731182893235
6.86,-0.13657394960390043,105.83356298769725
6.87,-0.14299075739481384,104.03372523567073
6.88,-0.13631380874751203,103.02638898718905
6.89,-0.11793052156273306,101.3172592385803
6.9,-0.07392336002369848,100.18818330130108
6.91,-0.05814148140280332,98.99823751962306
6.92,-0.07257929893235851,97.74622836718552
6.93,-0.08237793785632089,97.71639020816652
6.94,-0.09963394799675021,97.34997761541311
6.95,-0.10895566201733389,96.95253333727993
6.96,-0.11480883128607249,96.61715242990628
6.97,-0.1307641371445599,96.52644442648851
6.98,-0.13999913754634744,96.1898699927541
6.99,-0.14312082782300803,96.16003183373509
7.0,-0.20017838899085977,95.79361924098168
7.01,-0.30987111676796075,95.6098161814246
7.02,-0.000346854475184509,95.3961749628485
7.03,1.2039318833654307,94.90802268129755
7.04,2.2985612502383432,94.08448949237295
7.05,1.7439409444183132,93.65720705522077
7.06,0.3514069401713057,93.626175369841
7.07,-0.2799549182832968,92.83367386629617
7.08,-0.2704597770251209,92.89454371069495
7.09,-0.19081331816087801,92.16171852518812
7.1,-0.16766078194231204,92.03997883639057
7.11,-0.16289153290852504,92.13188036616911
7.12,-0.15664815235520388,92.03997883639057
7.13,-0.14598237724328023,91.30715365088375
7.14,-0.14342432548879447,90.5755219917377
7.15,-0.13596695427232752,90.08617618382597
7.16,-0.12126899588638396,90.08617618382597
7.17,-0.11125357291543127,89.32351283930015
7.18,-0.10570390131247911,88.92726208752774
7.19,-0.09889688223698313,88.89623040214796
7.2,-0.08922831374121494,88.95710024654674
7.21,-0.08064366548039835,88.07269721322336
7.22,-0.07388000321430042,87.64541477607118
7.23,-0.058184838212201384,87.58454493167241
7.24,-0.022675611315187277,87.61438309069142
7.25,0.024930165403886585,87.247970497938
7.26,0.07838911139169903,87.21813233891899
7.27,0.13943549902417263,87.18710065353923
7.28,0.20212944541377262,87.18710065353923
7.29,0.24904151318247747,87.247970497938
7.3,0.23997994001828216,87.31003386869754
7.31,0.1699586928404094,88.07269721322336
7.32,0.0741401440706888,93.35166430686613
7.33,-0.011272770443496543,104.06356339468974
7.34,-0.0675932658515812,118.07078876457251
7.35,-0.10080458185049793,131.8345347568602
7.36,-0.11320462933834413,142.1191514075316
7.37,-0.11780045113453887,145.62811890816687
7.38,-0.1174102398499563,145.6901822789264
7.39,-0.1121640659127906,144.46920481186862
7.4,-0.1078717417823823,143.7363796263618
7.41,-0.1099095118240913,143.67550978196303
7.42,-0.11411512233570346,142.57746553006356
7.43,-0.11190392505640222,140.07464075154923
7.44,-0.10587732855007137,136.56447972455322
7.45,-0.10509690598090622,132.01833781641727
7.46,-0.10323256317678949,127.89828481907274
7.47,-0.10657103750044039,120.35997232451075
7.48,-0.10947594373011066,117.64350632742033
7.49,-0.11398505190750927,114.8972021713109
7.5,-0.11476547447667441,112.76078998554998
7.51,-0.11086336163084869,111.2963331408971
7.52,-0.10960601415830484,110.13622551823809
7.53,-0.10670110792863458,108.48915914038889
7.54,-0.10605075578766363,107.3290515177299
7.55,-0.10288570870160499,106.07823589165311
7.56,-0.0978563188114296,105.01002979877265
7.57,-0.09542833748513804,104.15546492446828
7.58,-0.09482134215356515,102.53823670563808
7.59,-0.09568847834152643,101.37812908297909
7.6,-0.0946479149159729,100.1273134569023
7.61,-0.084502421516826,99.30258674161693
7.62,-0.08320171723488409,98.6007932414899
7.63,-0.0806870222897964,98.47905355269233
7.64,-0.07388000321430042,98.66166308588866
7.65,-0.07084502655643596,98.63182492686965
7.66,-0.07388000321430042,99.02807567864207
7.67,-0.07713176391915519,98.99823751962306
7.68,-0.07492056663985394,99.36345658601572
7.69,-0.07526742111503845,99.70003101975011
7.7,-0.06971774951208631,99.72986917876912
7.71,-0.0685471156583386,99.7609008641489
7.72,-0.06724641137639668,106.1689438950709
7.73,-0.062347091914415495,106.01736604725434
7.74,-0.056190424979890456,105.68079161351993
7.75,-0.054369438985171784,105.68079161351993
7.76,-0.05770791330882268,104.61258552063947
7.77,-0.07327300788272753,104.12443323908852
7.78,-0.09187307911449683,102.96551914279027
7.79,-0.09521155343814772,101.71350999035273
7.8,-0.079733172483039,100.52356420867471
7.81,-0.060222608253910376,99.24171689721817
7.82,-0.030306409769246475,98.69269477126844
7.83,-0.028745564630916185,97.74622836718552
7.84,-0.05723098840544399,97.04443486705847
7.85,-0.07348979192971784,96.09916198933632
7.86,-0.10045772737531342,95.76258755560193
7.87,-0.10323256317678949,95.24459711503195
7.88,-0.0932171402058368,94.93905436667731
7.89,-0.09208986316148714,94.45090208512636
7.9,-0.09057237483255491,93.7491085849993
7.91,-0.0956017647227303,93.22992461806858
7.92,-0.16328174419310762,92.89454371069495
7.93,-0.2646066077563823,92.89454371069495
7.94,0.12573474725438452,92.62003264772008
7.95,1.4213229256873217,92.16171852518812
7.96,2.4265071947720287,91.76546777341571
7.97,1.6965519517462297,91.33818533626352
7.98,0.3034976657864454,90.97177274351012
7.99,-0.23586104312546613,90.60536015075671
8.0,-0.2001350321814617,90.11720786920574
8.01,-0.14212362120685257,90.17807771360452
8.02,-0.13154455971372503,89.72095711743333
8.03,-0.12486761106642325,89.29367468028114
8.04,-0.11008293906168354,88.92726208752774
8.05,-0.0949947693911574,88.40807812059701
8.06,-0.08268143552210733,88.49997965037555
8.07,-0.07244922850416431,88.0416655278436
8.08,-0.06872054289593085,88.0416655278436
8.09,-0.0637778666245516,87.64541477607118
8.1,-0.05597364093290014,87.64541477607118
8.11,-0.04890648100101577,87.58454493167241
8.12,-0.042186175544315904,87.64541477607118
8.13,-0.03633300627557732,87.15726249452023
8.14,-0.026751151398605257,86.94362127594412
8.15,-0.006850375884894053,86.85171974616559
8.16,0.022545540886993086,86.94362127594412
8.17,0.07114852422222241,86.14992624603853
8.18,0.12829279900887028,86.1809579314183
8.19,0.1880818391688,85.56987243470904
8.2,0.25129606727117676,85.35623121613294
8.21,0.29391581090947333,85.29536137173417
8.22,0.28624165564601606,85.66177396448758
8.23,0.21899524426961936,85.72264380888636
8.24,0.12178927759916072,89.75079527645234
8.25,0.04157918021274302,100.43166267889617
8.26,-0.011272770443496543,114.92823385669067
8.27,-0.04027847593080111,128.81371953777588
8.28,-0.05129110551790927,138.88469496987122
8.29,-0.056060354551696265,138.88469496987122
8.3,-0.053285518750220195,143.43083687800717
8.31,-0.047042138196899036,143.06561781161452
8.32,-0.04647849967472421,142.15018309291136
8.33,-0.04999040123596736,141.3863262220248
8.34,-0.053068734703229876,131.13274125673314
8.35,-0.05501979112614274,131.1637729421129
8.36,-0.056277138598686584,126.37176460366034
8.37,-0.06265058958020193,122.34361313609435
8.38,-0.06568556623806639,118.43720135732592
8.39,-0.06728976818579474,115.17171323428576
8.4,-0.0693708950369018,112.85269151532852
8.41,-0.06902404056171729,110.44176826659273
8.42,-0.06676948647301799,108.85557173314231
8.43,-0.06785340670796958,106.84089923617894
8.44,-0.06789676351736763,105.68079161351993
8.45,-0.06846040203954247,104.5218775172217
8.46,-0.0728394397887469,103.42263973896146
8.47,-0.07335972150152366,102.1407924275049
8.48,-0.07548420516202878,100.52356420867471
8.49,-0.07825904096350485,99.30258674161693
8.5,-0.08155415847775768,98.17351080433771
8.51,-0.08771082541228271,96.98356502265969
8.52,-0.08801432307806915,95.76258755560193
8.53,-0.0887947456472343,94.84715283689877
8.54,-0.0908325156889433,94.93905436667731
8.55,-0.08818775031566141,94.93905436667731
8.56,-0.08788425264987497,94.96889252569632
8.57,-0.08766746860288464,94.87818452227854
8.58,-0.08320171723488409,94.84715283689877
8.59,-0.08250800828451507,95.45823833360805
8.6,-0.08315836042548604,95.79361924098168
8.61,-0.08385206937585506,96.58731427088728
8.62,-0.08012338376762158,96.61715242990628
8.63,-0.08389542618525311,96.55628258550752
8.64,-0.10540040364669268,103.7281824873161
8.65,-0.12751237643970512,103.7281824873161
8.66,-0.1315879165231231,103.69715080193633
8.67,-0.1288564375310451,103.39280157994246
8.68,-0.11173049781880996,102.96551914279027
8.69,-0.06711634094820249,102.99535730180928
8.7,-0.057100917977249796,101.68367183133373
8.71,-0.07942967481725256,100.46269436427595
8.72,-0.09950387756855603,99.36345658601572
8.73,-0.11970815074805367,98.1436726453187
8.74,-0.11827737603791758,97.07546655243824
8.75,-0.11519904257065505,95.73274939658292
8.76,-0.11394169509811121,95.30546695943073
8.77,-0.11034307991807192,94.41987039974659
8.78,-0.1331487616614534,94.17639102215149
8.79,-0.24986529256104067,93.26095630344835
8.8,-0.2686387910304022,92.89454371069495
8.81,0.45004368155190044,92.52813111794153
8.82,1.824801393945702,92.16171852518812
8.83,2.149153685052616,91.79530593243472
8.84,0.9307839841576299,91.36802349528253
8.85,-0.10860880754214938,90.87987121373158
8.86,-0.2816891906592194,90.51345862097816
8.87,-0.19683991466720885,89.68992543205356
8.88,-0.15812228387473803,89.29367468028114
8.89,-0.14710965428762987,89.26264299490137
8.9,-0.14429146167675574,88.49997965037555
8.91,-0.13583688384413334,88.46894796499578
8.92,-0.1270788083457245,87.61438309069142
8.93,-0.12655852663294773,87.15726249452023
8.94,-0.12465082701943292,86.91258959056437
8.95,-0.11199063867519835,86.79084990176682
8.96,-0.08844789117204979,86.45546899439317
8.97,-0.06668277285422186,85.99715487186123
8.98,-0.05393587089119115,86.11889456065877
8.99,-0.04270645725709267,86.11889456065877
9.0,-0.02701129225499364,86.21079609043731
9.01,-0.00789093931044758,85.72264380888636
9.02,0.019467207419730567,85.66177396448758
9.03,0.05723098840544399,85.29536137173417
9.04,0.1031024927485953,84.50166634182858
9.05,0.1589027064439032,84.04454574565739
9.06,0.21487634737680333,84.13525374907516
9.07,0.2605310676729643,83.70797131192299
9.08,0.2764430167220537,83.67813315290398
9.09,0.22775331976802823,84.13525374907516
9.1,0.1287263671028509,84.19731711983471
9.11,0.031130189147809684,84.13525374907516
9.12,-0.04257638682889848,84.0743839046764
9.13,-0.08987866588218589,84.0743839046764
9.14,-0.11255427719737317,84.16628543445493
9.15,-0.11853751689430596,86.08905640163977
9.16,-0.11632631961500471,92.95541355509371
9.17,-0.11207735229399447,104.91812826899411
9.18,-0.10878223477974164,119.19986470185175
9.19,-0.11042979353686805,137.23643506566125
9.2,-0.10821859625756682,137.29730491006003
9.21,-0.10379620169896432,135.19192440967888
9.22,-0.10232207017943015,131.59105537926507
9.23,-0.09946052075915796,127.56171038533834
9.24,-0.09330385382463292,123.59442876217113
9.25,-0.08636676432094274,119.59730897998492
9.26,-0.08658354836793306,116.45356054574232
9.27,-0.08714718689010789,112.82285335630951
9.28,-0.08697375965251564,110.4727999519725
9.29,-0.08831782074385561,108.06187670323672
9.3,-0.08801432307806915,106.04720420627335
9.31,-0.08172758571534994,104.46100767282292
9.32,-0.08389542618525311,103.05622714620806
9.33,-0.08740732774649627,101.34709739759931
9.34,-0.08918495693181688,99.7609008641489
9.35,-0.09113601335472973,98.26541233411625
9.36,-0.08779753903107884,96.92269517826092
9.37,-0.08862131840964205,95.33530511844974
9.38,-0.0897485954539917,93.626175369841
9.39,-0.08645347793973887,92.52813111794153
9.4,-0.08463249194502019,91.36802349528253
9.41,-0.08008002695822351,90.51345862097816
9.42,-0.07869260905748549,89.68992543205356
9.43,-0.09265350168366197,90.11720786920574
9.44,-0.10531369002789655,90.17807771360452
9.45,-0.1126409908161693,90.48362046195915
9.46,-0.12079207098300526,91.00161090252912
9.47,-0.11667317409018922,92.62003264772008
9.48,-0.10527033321849848,94.48074024414537
9.49,-0.08758075498408853,94.45090208512636
9.5,-0.04630507243713195,94.48074024414537
9.51,-0.03433859304326639,100.1273134569023
9.52,-0.058748476734376213,100.03541192712376
9.53,-0.08138073124016543,100.00438024174399
9.54,-0.10448991064933334,99.72986917876912
9.55,-0.10553047407488686,99.30258674161693
9.56,-0.0997640184249444,98.26541233411625
9.57,-0.09902695266517732,97.28910777101433
9.58,-0.10032765694711923,96.06813030395655
9.59,-0.12772916048669544,95.3663368038295
9.6,-0.250082076608031,94.60367345930368
9.61,-0.2426680622009621,94.48074024414537
9.62,0.5418734038569992,93.22992461806858
9.63,1.8922645893690888,92.43622958816299
9.64,2.0581910989354784,91.79530593243472
9.65,0.7896142127575347,91.30715365088375
9.66,-0.15274603950937815,90.97177274351012
9.67,-0.27657308715024786,90.51345862097816
9.68,-0.19792383490216045,90.08617618382597
9.69,-0.16857127493967136,89.68992543205356
9.7,-0.15729850449617483,89.29367468028114
9.71,-0.15092505351465949,88.92726208752774
9.72,-0.1465893725748531,88.46894796499578
9.73,-0.14116977140009515,87.98079568344482
9.74,-0.13570681341593915,87.70628462046996
9.75,-0.12833615581826832,87.18710065353923
9.76,-0.11923122584467497,87.15726249452023
9.77,-0.11415847914510152,86.48530715341218
9.78,-0.10735146006960554,86.11889456065877
9.79,-0.09334721063403098,85.2643296863544
9.8,-0.08346185809127248,85.32639305711393
9.81,-0.07431357130828105,84.53269802720834
9.82,-0.04604493158074357,84.53269802720834
9.83,-0.0046391786055928075,84.04454574565739
9.84,0.04608828839014163,84.0743839046764
9.85,0.10201857251364371,84.10541559005615
9.86,0.161504115007787,83.77003468268252
9.87,0.21517984504258977,83.2806888747708
9.88,0.2551548233076044,83.2508507157518
9.89,0.2648667486127707,82.91546980837815
9.9,0.2094133893926473,83.21981903037202
9.91,0.10860880754214938,84.10541559005615
9.92,0.020377700417089903,89.75079527645234
9.93,-0.036072865419188936,89.62905558765479
9.94,-0.07257929893235851,89.7818269618321
9.95,-0.08931502736001107,100.46269436427595
9.96,-0.09685911219527414,114.53078957855749
9.97,-0.09902695266517732,127.16545963356593
9.98,-0.09694582581407027,135.7409465356286
9.99,-0.09148286782991424,138.94556481427
