time_s,ECG1,ECG2,NIBP
0.0,-0.07342406581845358,-0.020617286714254772,94.07055657954879
0.01,-0.0629903465418442,-0.010780729439260615,99.08078646647415
0.02,-0.05311711631728409,-0.011364399504443514,100.12448899202826
0.03,-0.05893757955010337,-0.01831693998676923,99.96656032039837
0.04,-0.0432870006351893,-0.009046886010334942,100.19086481053938
0.05,-0.05078893102415638,-0.013681912998552086,100.05811317351716
0.06,-0.046736164032415546,-0.010780729439260615,100.01233674695776
0.07,-0.035741955703756906,0.004257358122510561,98.87708136828486
0.08,-0.0432870006351893,0.007158541681802032,97.70978249102039
0.09,-0.045011582333802425,-0.00848038271177507,95.39578412844317
0.1,-0.046736164032415546,0.006574871616619133,93.48690714091656
0.11,-0.05833397595558878,-0.013098242933369185,91.27361691677
0.12,-0.03802702645441929,-0.009630556075517842,89.41051635580277
0.13,-0.04151930439411086,-0.009046886010334942,88.27526097712988
0.14,-0.062386742947329606,-0.00037766886570658205,88.19744105197891
0.15,-0.07109588052532587,-0.012531739634809313,88.56823010710997
0.16,-0.05255662726523482,-0.024668643637289017,89.51122449423343
0.17,-0.08502187774162681,-0.00848038271177507,90.17269385801663
0.18,-0.08213320339644983,-0.017733269921586328,91.20724109825888
0.19,-0.06587902088702118,-0.005579199152483599,92.12734727210264
0.2,-0.06820720618014889,-0.011948069569626414,93.55328295942768
0.21,-0.069931787878762,-0.006729372516226371,94.44134563467986
0.22,-0.07225997317188972,-0.0200507834156949,95.01355096667224
0.23,-0.08036550715537139,-0.01021422614070074,94.93573104152128
0.24,-0.06937129882671274,-0.013098242933369185,94.81213468981093
0.25,-0.08618597038819066,-0.011364399504443514,94.57638609303007
0.26,-0.0751486475170667,-0.011364399504443514,94.27197285641012
0.27,-0.06704311353358502,0.017561602255356065,93.45257482099701
0.28,-0.06471492824045733,0.018145272320538964,92.26238773045284
0.29,0.01935842956693227,0.04013590036463585,91.18435288497918
0.3,0.08140025617453925,0.03261685658375026,90.5663711264274
0.31,0.06863835160480217,0.05228997113373859,90.08342982622582
0.32,0.007760617643759039,0.044770927352853,89.56615620610471
0.33,-0.02819691077232451,0.02393047267249888,88.75820227733145
0.34,-0.04440797873928783,0.012943742033761947,87.8815837087191
0.35,-0.08152959980193523,-0.010780729439260615,87.35515480328611
0.36,-0.0896351337854169,-0.023518470273546244,87.18578202501637
0.37,-0.09601608607028544,0.0013733413298421164,87.0392974600263
0.38,-0.08674645944023993,-0.03047101075587196,86.78066064996575
0.39,-0.09950836400997701,-0.019467113350512003,86.23134353125306
0.4,-0.08735006303475451,-0.02756982719658049,85.78273455097103
0.41,-0.22359201722519098,-0.02815349726176339,85.57902945278174
0.42,-0.18647039616254357,0.017561602255356065,85.67058230590051
0.43,0.417090083809583,0.2345838659036565,85.61336177270128
0.44,1.2300147819933422,0.36942881772752934,85.23112861093036
0.45,0.6113642121583509,0.019879115749464635,84.70469970549736
0.46,-0.020091376788842846,-0.18728942385721864,84.40028646887741
0.47,-0.16443886496276097,-0.10279459853868242,84.35451004231803
0.48,-0.1632747723161971,-0.05651299572300309,84.50099460730807
0.49,-0.06122265030076575,0.00020600119947631747,84.36595414895787
0.5,-0.028757399824373774,0.006574871616619133,83.89445695539614
0.51,-0.05255662726523482,0.011209898604836276,83.4229597618344
0.52,-0.016599098849151277,0.008308715045544805,83.26503109020452
0.53,-0.03052509606545222,0.030299343089641696,83.32225162340374
0.54,-0.008493564865669614,0.020462785814647534,83.36802804996314
0.55,-0.01310682090945971,0.04765494414552144,83.08650302662289
0.56,-0.01138223921084659,0.007725044980361905,82.56922940650176
0.57,-0.015435006202587422,0.04186974379356152,82.23277267129025
0.58,0.0019401544109397598,0.02624798616660745,82.20988445801055
0.59,0.004871943298582064,0.054607484627847154,82.25566088456993
0.6,0.04833140210363268,0.055191154693030056,82.06339989302049
0.61,0.035009008481846335,0.07833195610086972,81.57130330750704
0.62,0.07441570029515612,0.06676155539694989,81.09751729261734
0.63,0.07441570029515612,0.10322376770425808,80.94187744231542
0.64,0.11330501759888197,0.0997389140797837,81.10896139925718
0.65,0.14055340843696926,0.14952253728656043,81.41337463587715
0.66,0.20720849108836634,0.14893886722137753,82.15495274613927
0.67,0.2257908588909227,0.20217301051938258,84.88322776907899
0.68,0.2796840369725827,0.19118627988064565,91.67873829182061
0.69,0.2843404075588381,0.2206959517056281,101.67402103106366
0.7,0.3092606131037977,0.20507419407867405,110.4905607864024
0.71,0.2796840369725827,0.21779476814633664,116.81457411558227
0.72,0.23156820758127666,0.14835519715619463,120.34164778198337
0.73,0.15736807999844718,0.13273343952924055,122.44049693973145
0.74,0.11964285534128519,0.07081291231998413,122.75635428299125
0.75,0.03733719377497404,0.05287364119892148,121.75613936266855
0.76,0.006036035945145919,0.013510245332321822,119.36432107494036
0.77,-0.03979472269549774,0.02451414273768178,116.64520133731253
0.78,-0.03979472269549774,-0.011948069569626414,114.28771536950389
0.79,-0.06531853183497191,0.0031071847587677884,112.14308978519641
0.8,-0.04557207138585169,-0.015999426492660656,109.98473127292112
0.81,-0.07803732186224367,0.012360071968579049,107.86299390189335
0.82,-0.0479002566789794,-0.013681912998552086,106.15553319122805
0.83,-0.06531853183497191,0.00484102818769346,105.04316602583485
0.84,-0.05195302367072023,-0.017733269921586328,104.4160289819712
0.85,-0.06820720618014889,0.010042558474470477,103.81864661537114
0.86,-0.05311711631728409,-0.019467113350512003,103.38148174172895
0.87,-0.062386742947329606,0.00542469825287636,102.95576097472662
0.88,-0.038630630048933884,-0.013681912998552086,102.93287276144692
0.89,-0.06066216124871649,0.008892385110727704,102.79783230309671
0.9,-0.03919111910098315,-0.002111512294632254,102.34922332281468
0.91,-0.04557207138585169,0.03666821350678451,100.7768030704996
0.92,-0.03630244475580617,-0.009630556075517842,98.40558417472313
0.93,-0.05078893102415638,0.005991201551436233,96.1373622387053
0.94,-0.03341377041062919,-0.009046886010334942,94.17126471797945
0.95,-0.06355083559389346,0.017561602255356065,92.73388492401457
0.96,-0.04557207138585169,-0.010780729439260615,91.60091836666963
0.97,-0.07458815846501743,0.01409391539750472,90.97149250147801
0.98,-0.05372071991179868,-0.017733269921586328,91.01498010670943
0.99,-0.0705353914732766,0.02451414273768178,91.72451471838
1.0,-0.06471492824045733,-0.016583096557843558,93.10467397914563
1.01,-0.07458815846501743,0.01526125552787052,94.37496981616874
1.02,-0.06876769523219815,-0.01714959985640343,95.35000770188377
1.03,-0.08385778509506295,0.018728942385721863,95.90161364192444
1.04,-0.06704311353358502,-0.015999426492660656,96.51959540047622
1.05,-0.08618597038819066,0.01409391539750472,97.10324483910846
1.06,-0.06760360258563429,-0.022934800208363346,97.56329792603033
1.07,-0.08036550715537139,0.03493437007785884,97.41681336104028
1.08,-0.06415443918840806,-0.020617286714254772,96.69812346405784
1.09,-0.09312741172510847,0.00542469825287636,95.93594596184398
1.1,-0.060101672196667226,-0.016583096557843558,95.3179642032922
1.11,-0.08618597038819066,0.013510245332321822,94.71142655138027
1.12,-0.07980501810332212,-0.025835983767654815,93.86914030268747
1.13,-0.0826936924484991,0.011209898604836276,92.8139936704935
1.14,-0.06820720618014889,-0.011948069569626414,91.79089053689111
1.15,-0.09601608607028544,0.016411428891613292,91.18435288497918
1.16,-0.07575225111158129,-0.025835983767654815,90.90282786163893
1.17,-0.08791055208680378,0.0036736880573276618,90.5434829131477
1.18,-0.06820720618014889,-0.023518470273546244,89.93694526123578
1.19,-0.08735006303475451,0.011776401903396148,89.21825536425332
1.2,-0.07282046222393898,-0.01714959985640343,88.79253459725099
1.21,-0.09485199342372158,0.005991201551436233,88.64605003226094
1.22,-0.07225997317188972,-0.022934800208363346,88.71242585077206
1.23,-0.08441827414711221,0.014677585462687619,88.45607786203946
1.24,-0.06531853183497191,-0.017733269921586328,87.87013960207926
1.25,-0.0751486475170667,0.023363969373939007,87.35515480328611
1.26,-0.06937129882671274,-0.017733269921586328,87.15144970509682
1.27,-0.08735006303475451,0.01526125552787052,87.15144970509682
1.28,-0.07458815846501743,-0.0188834432853291,87.16289381173667
1.29,-0.08441827414711221,0.01409391539750472,86.80354886324545
1.3,-0.06643950993907044,-0.013681912998552086,86.2427876378929
1.31,-0.07747683281019441,0.019879115749464635,85.84911036948215
1.32,-0.06760360258563429,-0.017733269921586328,85.75984633769133
1.33,-0.08213320339644983,0.014677585462687619,85.71406991113194
1.34,-0.062386742947329606,-0.015999426492660656,85.56758534614188
1.35,-0.0751486475170667,0.031449516453384466,85.10753225922001
1.36,-0.04733976762693014,-0.013681912998552086,84.59254746042686
1.37,-0.0751486475170667,0.015827758826430394,84.36595414895787
1.38,-0.06876769523219815,-0.023518470273546244,84.42317468215711
1.39,-0.08096911074988597,0.016411428891613292,84.4689511087165
1.4,-0.06704311353358502,-0.023518470273546244,84.25380190388736
1.41,-0.07980501810332212,0.018728942385721863,83.77086060368579
1.42,-0.062386742947329606,-0.0188834432853291,83.34513983668344
1.43,-0.07282046222393898,0.021612959178390307,83.18721116505354
1.44,-0.05484169801589721,-0.01021422614070074,83.2879193034842
1.45,-0.07342406581845358,0.02451414273768178,83.25587580489264
1.46,-0.06820720618014889,-0.014832086362294859,82.91713024835315
1.47,-0.07920141450880752,0.023363969373939007,82.4685212680711
1.48,-0.02237644753950523,0.014677585462687619,82.23277267129025
1.49,-0.021212354892941373,0.04823861421070434,82.19844035137069
1.5,0.062257399319933626,0.03898572700089308,82.26710499120979
1.51,0.08196074522658851,0.0800657995297954,82.07484399966035
1.52,0.0454427277584557,0.03493437007785884,81.60334680609861
1.53,-0.007329472219105759,0.06212652840873274,81.24400185760739
1.54,-0.03052509606545222,0.011209898604836276,81.14329371917674
1.55,-0.060101672196667226,0.017561602255356065,81.20051425237597
1.56,-0.06182625389528034,-0.021200956779437674,81.18907014573612
1.57,-0.08851415568131837,0.015827758826430394,80.90754512239587
1.58,-0.06415443918840806,-0.021200956779437674,80.47038024875368
1.59,-0.08618597038819066,0.007158541681802032,80.22318754533298
1.6,-0.06355083559389346,-0.025252313702471916,80.18885522541343
1.61,-0.1493918896423615,0.00020600119947631747,80.13163469221419
1.62,-0.21604697229375858,0.002523514693584889,79.87528670348159
1.63,0.1787960076037152,0.20969205430026816,79.45872122179114
1.64,1.040440138773295,0.39315328920055187,79.15430798517119
1.65,0.8328436168027409,0.17151316533065733,79.07648806002022
1.66,0.07501930388967071,-0.1977096511973957,79.15430798517119
1.67,-0.10356113100171785,-0.10222809524012255,79.06504395338038
1.68,-0.1714234208421441,-0.10454560873423112,78.65076729301788
1.69,-0.07109588052532587,0.006574871616619133,78.19986949140788
1.7,-0.01715958790120054,-0.002678015593192127,78.00989732118641
1.71,-0.0432870006351893,0.04013590036463585,78.04422964110596
1.72,-0.014270913556023565,0.004257358122510561,78.12204956625692
1.73,-0.014270913556023565,0.05287364119892148,77.96412089462702
1.74,-0.0015090089862864798,0.016411428891613292,77.51551191434498
1.75,-0.0050012869259780475,0.06676155539694989,77.20194339241316
1.76,0.004268339704067471,0.02393047267249888,77.14472285921391
1.77,0.0025437580054543515,0.06386037183765841,77.213387499053
1.78,0.022247103912109246,0.025664316101424552,77.22254278436488
1.79,0.02168661486005998,0.07949929623123551,76.9204183690729
1.8,0.047770913051583416,0.0441872572876701,76.47180938879087
1.81,0.0454427277584557,0.09627122722193236,76.24750489864985
1.82,0.0680778625527529,0.054607484627847154,76.25666018396173
1.83,0.07213062954449373,0.11594434177192069,76.29099250388127
1.84,0.10282818377980726,0.09512105385818959,76.24750489864985
1.85,0.1370611304972777,0.16571079821207438,76.37110125036021
1.86,0.18284877459545604,0.14662135372726895,77.98700910790672
1.87,0.20199163145006166,0.21259323785955964,84.56965924714716
1.88,0.23850964891819446,0.18191622590421136,95.46444876828225
1.89,0.2628693654111048,0.2502056235306106,106.58354277955836
1.9,0.28373680396432355,0.20449052401349113,114.64706031799511
1.91,0.2907213598437067,0.2507892935957935,119.95941462021244
1.92,0.28839317455057895,0.18886876638653707,122.65564614456059
1.93,0.2454942047975776,0.20622436744241682,123.73368099003424
1.94,0.18750514518171144,0.1153778384733608,123.0149910930518
1.95,0.11908236628923592,0.1234805523194293,121.14960171075661
1.96,0.06919884065685143,0.050556127704812916,118.17413398439619
1.97,0.008924710290322895,0.0574915014205156,114.804988989625
1.98,-0.010778635616332,0.002523514693584889,111.50221981336493
1.99,-0.03919111910098315,0.03376702994749304,108.60457201215547
2.0,-0.035138352109242314,-0.011948069569626414,106.44850232120815
2.01,-0.05255662726523482,0.03898572700089308,104.95390199404403
2.02,-0.035138352109242314,-0.019467113350512003,103.74082669022017
2.03,-0.0554453016104118,0.02624798616660745,102.49341906647676
2.04,-0.03630244475580617,-0.015999426492660656,101.28034376265289
2.05,-0.05255662726523482,0.03666821350678451,100.42661340732025
2.06,-0.03397425946267846,-0.017733269921586328,100.29386177029802
2.07,-0.0432870006351893,0.030299343089641696,100.51816626043903
2.08,-0.02298005113401982,-0.014265583063734984,101.01255166728046
2.09,-0.03630244475580617,0.025664316101424552,100.84317888901072
2.1,-0.029361003418888365,-0.025252313702471916,100.05811317351716
2.11,-0.04617567498036628,0.03376702994749304,98.84503786969329
2.12,-0.025868725479196795,-0.014265583063734984,98.20416789786181
2.13,-0.04384748968723857,0.030299343089641696,97.43970157431998
2.14,-0.035138352109242314,-0.013098242933369185,95.50793637351367
2.15,-0.05195302367072023,0.02856549966071602,93.09322987250579
2.16,-0.03630244475580617,-0.015415756427477757,91.2507287034903
2.17,-0.04733976762693014,0.027415326296973252,90.63503576626648
2.18,-0.04268339704067471,-0.014265583063734984,90.92571607491863
2.19,-0.05484169801589721,0.02219662924357321,91.73367000369187
2.2,-0.04384748968723857,-0.021784626844620573,92.74532903065442
2.21,-0.056609394256975656,0.02451414273768178,93.45257482099701
2.22,-0.0479002566789794,-0.021784626844620573,94.1827088246193
2.23,-0.06355083559389346,0.027981829595533123,94.9128428282416
2.24,-0.05428120896384794,-0.0188834432853291,95.71164147170296
2.25,-0.06937129882671274,0.020462785814647534,96.10302991878575
2.26,-0.06415443918840806,-0.03162118411961473,96.1373622387053
2.27,-0.07225997317188972,0.019312612450904765,95.87872542864474
2.28,-0.06471492824045733,-0.0333550275485404,95.70019736506312
2.29,-0.069931787878762,0.017561602255356065,95.4530046616424
2.3,-0.06415443918840806,-0.03799005453675755,94.87851050832204
2.31,-0.07225997317188972,0.01409391539750472,93.83480798276793
2.32,-0.05311711631728409,-0.02930367062550616,92.63317678558391
2.33,-0.07575225111158129,0.007725044980361905,91.85726635540223
2.34,-0.06704311353358502,-0.03567254104264898,91.3857691618405
2.35,-0.07575225111158129,0.010042558474470477,90.97149250147801
2.36,-0.07282046222393898,-0.04665927168138591,90.34206663628638
2.37,-0.07282046222393898,0.011209898604836276,89.56615620610471
2.38,-0.06643950993907044,-0.036822714406391746,88.94817444755292
2.39,-0.08441827414711221,0.007725044980361905,88.62316181898125
2.4,-0.06760360258563429,-0.03567254104264898,88.52245368055058
2.41,-0.08213320339644983,0.005991201551436233,88.2203292652586
2.42,-0.06820720618014889,-0.03799005453675755,87.71449975177732
2.43,-0.07282046222393898,0.007725044980361905,87.19722613165621
2.44,-0.06415443918840806,-0.03740638447157465,86.9271452149558
2.45,-0.07225997317188972,0.017561602255356065,86.8149929698853
2.46,-0.06820720618014889,-0.04087407132942599,86.71428483145463
2.47,-0.07225997317188972,0.010626228539653376,86.30916345640402
2.48,-0.069931787878762,-0.03740638447157465,85.78273455097103
2.49,-0.07691634375814514,0.007158541681802032,85.47832131435108
2.5,-0.07342406581845358,-0.036822714406391746,85.46687720771122
2.51,-0.07691634375814514,0.010626228539653376,85.4233896024798
2.52,-0.07109588052532587,-0.04724294174656881,85.13042047249971
2.53,-0.07282046222393898,0.008308715045544805,84.60170274573873
2.54,-0.06820720618014889,-0.05187796873478595,84.23091369060766
2.55,-0.07691634375814514,0.010626228539653376,84.14164965881685
2.56,-0.06355083559389346,-0.04087407132942599,84.21031429865594
2.57,-0.06937129882671274,0.009458888409287576,84.06382973366588
2.58,-0.06415443918840806,-0.04435892495390036,83.60377664674401
2.59,-0.07458815846501743,0.010042558474470477,83.18721116505354
2.6,-0.062386742947329606,-0.04897678517549448,83.05217070670335
2.61,-0.07575225111158129,0.006574871616619133,83.0636148133432
2.62,-0.05777348690353951,-0.02815349726176339,82.97435078155237
2.63,-0.04151930439411086,0.029715673024458794,82.59211761978146
2.64,0.018194336920368415,-0.025835983767654815,82.14350863949943
2.65,-0.00034491633972262396,0.04186974379356152,81.91920414935841
2.66,0.05587644703506508,0.014677585462687619,81.96269175458984
2.67,0.07329472219105759,0.07544793930820128,81.99702407450938
2.68,0.04833140210363268,0.019879115749464635,81.7841636910082
2.69,0.00021557271232663998,0.0586588415508814,81.3332658893982
2.7,-0.014874517150538159,-0.006729372516226371,80.95332154895526
2.71,-0.05716988330902492,0.016411428891613292,80.8297251972449
2.72,-0.06355083559389346,-0.04492542825246024,80.87321280247633
2.73,-0.08618597038819066,-0.00037766886570658205,80.76106055740581
2.74,-0.0629903465418442,-0.041457741394608894,80.41315971555444
2.75,-0.07575225111158129,0.002523514693584889,80.05381476706323
2.76,-0.06415443918840806,-0.05071062860442015,79.94166252199271
2.77,-0.10938159423453712,-0.006729372516226371,79.95310662863257
2.78,-0.22242792457862712,-0.04897678517549448,79.93021841535287
2.79,-0.009657657512233471,0.15530773763852035,79.59376168014134
2.8,0.8705257269174376,0.376364191443232,79.05359984674052
2.81,0.9928847984340384,0.3225463780800441,78.78580775136808
2.82,0.22402316264984426,-0.19885982456113846,78.79496303667997
2.83,-0.04733976762693014,-0.13925681084599062,78.80640714331982
2.84,-0.17547618783388494,-0.16298128231901318,78.6278790797382
2.85,-0.09545559701823618,-0.020617286714254772,78.25709002460712
2.86,-0.015435006202587422,-0.0345223676789062,77.9435215026753
2.87,-0.03224967776406534,0.019879115749464635,77.84052454291667
2.88,-0.016599098849151277,-0.0188834432853291,77.88630096947605
2.89,-0.018323680547764398,0.039552230299452956,77.77414872440555
2.9,0.0065965249971951835,-0.005579199152483599,77.41480377591432
2.91,-0.007889961271155023,0.058075171485698504,77.04401472078325
2.92,0.005432432350631327,0.00542469825287636,76.8975301557932
2.93,0.004268339704067471,0.055191154693030056,76.94330658235259
2.94,0.022850707506623838,0.005991201551436233,76.99823829422387
2.95,0.018194336920368415,0.06386037183765841,76.75104559080316
2.96,0.046046331352970295,0.025097812802864678,76.25666018396173
2.97,0.05648005062957967,0.08758484331068098,75.9430916620299
2.98,0.0877812084594078,0.03898572700089308,75.87671584351878
2.99,0.08661711581284394,0.11132648155032657,75.86527173687894
3.0,0.12257464422892748,0.07139658238516704,75.75311949180842
3.01,0.13417245615210072,0.15530773763852035,75.54941439361913
3.02,0.17763191495715133,0.12404705561798918,75.81949531031954
3.03,0.20026704975144854,0.20390685394830824,77.9435215026753
3.04,0.24894336819480384,0.173247008759583,84.22175840529579
3.05,0.2634729690056194,0.24732160673794215,94.2948610696898
3.06,0.30870012405174846,0.21200956779437674,104.56022472563328
3.07,0.30520784611205687,0.26409353772863897,112.99682014052905
3.08,0.29533461588749677,0.17844853904636002,118.35266204797782
3.09,0.2454942047975776,0.19638781016742266,121.30753038238652
3.1,0.20604439844180247,0.10379027100281796,121.80191578922795
3.11,0.13533654879866458,0.1153778384733608,120.8795207940562
3.12,0.08428893051971623,0.022780299308756108,118.4213266878169
3.13,0.011813384635499871,0.04823861421070434,114.57839567815603
3.14,0.0037078506520182076,-0.024102140338729143,110.5798248181932
3.15,-0.03341377041062919,0.021612959178390307,107.3022326765408
3.16,-0.021815958487455964,-0.03740638447157465,105.05461013247469
3.17,-0.03802702645441929,0.016411428891613292,103.65156265842936
3.18,-0.025308236427147534,-0.04841028187693461,102.4155991413258
3.19,-0.04212290798862545,0.004257358122510561,100.92099881416168
3.2,-0.04212290798862545,-0.05476198552745439,99.17005049826497
3.21,-0.045011582333802425,0.011209898604836276,97.81049062945105
3.22,-0.025868725479196795,-0.04435892495390036,97.1146889457483
3.23,-0.04906434932554326,0.0036736880573276618,96.89038445560729
3.24,-0.03168918871201608,-0.04435892495390036,97.04602430590921
3.25,-0.05311711631728409,0.009458888409287576,96.94531616747855
3.26,-0.025868725479196795,-0.04897678517549448,96.70956757069769
3.27,-0.035138352109242314,0.013510245332321822,96.22662627049611
3.28,-0.020091376788842846,-0.04204141145979179,95.59720040530449
3.29,-0.040355211747547005,0.01699509895679619,94.38412510148062
3.3,-0.023540540186069086,-0.04087407132942599,92.40887229544289
3.31,-0.04440797873928783,0.012360071968579049,90.30773431636683
3.32,-0.024704632832632942,-0.041457741394608894,88.78109049061115
3.33,-0.04440797873928783,0.021612959178390307,88.17455283869921
3.34,-0.03457786305719305,-0.05129429866960305,88.14022051877967
3.35,-0.05484169801589721,0.009458888409287576,88.37596911556054
3.36,-0.03919111910098315,-0.05129429866960305,88.81542281053069
3.37,-0.056005790662461065,0.007725044980361905,89.26403179081272
3.38,-0.04212290798862545,-0.05071062860442015,90.08342982622582
3.39,-0.062386742947329606,0.007158541681802032,91.12713235177993
3.4,-0.05078893102415638,-0.05766316908674587,92.11590316546278
3.41,-0.06876769523219815,-0.002678015593192127,92.58740035902451
3.42,-0.05428120896384794,-0.06113085594459721,92.72244081737472
3.43,-0.07458815846501743,0.002523514693584889,92.71099671073488
3.44,-0.05139253461867097,-0.06518221286763146,92.82314895580538
3.45,-0.07342406581845358,0.004257358122510561,92.7911054572138
3.46,-0.05716988330902492,-0.07096741321959137,92.35165176224365
3.47,-0.0751486475170667,0.00020600119947631747,91.47732201495928
3.48,-0.056005790662461065,-0.06749972636174002,90.5434829131477
3.49,-0.07691634375814514,0.0031071847587677884,89.89345765600434
3.5,-0.05255662726523482,-0.06056435264603734,89.38762814252307
3.51,-0.07803732186224367,0.0013733413298421164,88.76964638397129
3.52,-0.06122265030076575,-0.06518221286763146,87.9273601352785
3.53,-0.07920141450880752,0.00020600119947631747,87.19722613165621
3.54,-0.062386742947329606,-0.07501877014262562,86.72572893809448
3.55,-0.07458815846501743,0.004257358122510561,86.47853623467377
3.56,-0.05255662726523482,-0.0692335697906657,86.30916345640402
3.57,-0.06820720618014889,-0.004995529087300699,85.83766626284229
3.58,-0.05716988330902492,-0.07445226684406574,85.23112861093036
3.59,-0.07109588052532587,0.0031071847587677884,84.82829605720772
3.6,-0.05255662726523482,-0.06344836943870578,84.70469970549736
3.61,-0.0826936924484991,-0.002678015593192127,84.581103353787
3.62,-0.05372071991179868,-0.06634955299799725,84.32246654372645
3.63,-0.0705353914732766,0.007158541681802032,83.83952524352488
3.64,-0.04557207138585169,-0.054195482228894525,83.45729208175395
3.65,-0.07169948411984045,0.007158541681802032,83.3565839433233
3.66,-0.046736164032415546,-0.055929325657820196,83.38862744191486
3.67,-0.07398455487050284,0.0036736880573276618,83.21009937833324
3.68,-0.01138223921084659,-0.031037514054431833,82.71571397149182
3.69,0.0013796653588904959,0.033200526648933165,82.20988445801055
3.7,0.04371814605984259,-0.021200956779437674,81.98557996786953
3.71,0.072691118596543,0.06097635504498997,82.00846818114923
3.72,0.09937902038258102,0.002523514693584889,82.03135639442893
3.73,0.0234111965586731,0.07428059917783547,81.74983137108866
3.74,0.008321106695808303,-0.026419653832837717,81.24400185760739
3.75,-0.03457786305719305,0.030883013154824595,80.89610101575602
3.76,-0.038630630048933884,-0.06286469937352288,80.80683698396521
3.77,-0.07747683281019441,-0.006162869217666497,80.8297251972449
3.78,-0.05195302367072023,-0.07096741321959137,80.72672823748627
3.79,-0.07575225111158129,-0.01021422614070074,80.31245157712378
3.8,-0.04733976762693014,-0.06518221286763146,79.8523984902019
3.81,-0.0751486475170667,-0.004995529087300699,79.6715816052923
3.82,-0.1470637043492338,-0.09469188469261393,79.76084563708312
3.83,-0.191126766748799,0.049972457639630014,79.8295102769222
3.84,0.37479471765109623,0.18945243645171997,79.61664989342104
3.85,1.1453809351339035,0.462009190125511,79.13370859321947
3.86,0.694833966371226,0.033200526648933165,78.77436364472824
3.87,0.06342149196649748,-0.1838217369993673,78.67136668496961
3.88,-0.069931787878762,-0.17977038007633306,78.7400313248087
3.89,-0.15344465663410234,-0.06691605629655713,78.61643497309834
3.9,-0.02819691077232451,-0.06691605629655713,78.24564591796728
3.91,-0.021815958487455964,0.011209898604836276,77.8977450761159
3.92,0.007157014049244447,-0.04087407132942599,77.81992515096493
3.93,-0.014270913556023565,0.04303708392392733,77.90918918275575
3.94,0.024575289205236956,-0.025835983767654815,77.93207739603544
3.95,-0.0026731016328503357,0.04765494414552144,77.67344058597489
3.96,0.024575289205236956,-0.025835983767654815,77.25687510428442
3.97,0.008321106695808303,0.056341328056772826,77.02112650750357
3.98,0.04833140210363268,-0.006729372516226371,77.00968240086371
3.99,0.039665379068101754,0.06444404190284131,77.04401472078325
4.0,0.06398198101854674,0.005991201551436233,76.90897426243305
4.01,0.047167309457068825,0.08238331302390396,76.5152969940223
4.02,0.09761132414150257,0.02219662924357321,76.12390854693949
4.03,0.08079665258002466,0.09858874071604094,75.95453576866974
4.04,0.13240475991102227,0.051706301068555685,75.95453576866974
4.05,0.12835199291928143,0.135617456321909,75.86527173687894
4.06,0.19216151576796686,0.09743856735229817,75.71878717188888
4.07,0.19910295710488468,0.18828509632135418,75.84238352359924
4.08,0.2582561093673147,0.1512563807154861,77.35758324271508
4.09,0.2651975507042325,0.24268657974972502,82.61500583306116
4.1,0.3237470993721479,0.18828509632135418,91.76800232361141
4.11,0.31620205444071553,0.2727799216398904,101.65113281778396
4.12,0.33827670018296346,0.18481740946350284,109.90691134777016
4.13,0.2907213598437067,0.2230134651997367,115.67931873690938
4.14,0.2675257359973602,0.1223132121890635,118.76922752966829
4.15,0.16952638097366968,0.13793496981601758,119.74655423671128
4.16,0.1271879002727176,0.02683165623179035,118.66851939123762
4.17,0.04949549475019654,0.0574915014205156,116.05010779204045
4.18,0.025739381851800813,-0.03972389796568322,112.19802149706769
4.19,-0.01715958790120054,0.01699509895679619,108.41231102060604
4.2,-0.007889961271155023,-0.05939701251567154,105.3018028358954
4.21,-0.035138352109242314,0.01526125552787052,103.11140082502854
4.22,-0.02298005113401982,-0.07096741321959137,101.6854651377035
4.23,-0.038630630048933884,0.002523514693584889,100.59598618559
4.24,-0.00905405391771888,-0.06344836943870578,99.25931453005578
4.25,-0.038630630048933884,0.007725044980361905,97.54040971275064
4.26,-0.01138223921084659,-0.06286469937352288,95.89016953528458
4.27,-0.040355211747547005,-0.0015278422294493547,94.9128428282416
4.28,-0.012546331857410446,-0.06056435264603734,94.65420601818103
4.29,-0.025868725479196795,0.01409391539750472,94.75491415661169
4.3,-0.00034491633972262396,-0.06056435264603734,94.90139872160174
4.31,-0.0328101668161146,0.00542469825287636,94.55349787975037
4.32,-0.0009485199342372159,-0.06056435264603734,93.46401892763686
4.33,-0.024704632832632942,0.011776401903396148,92.07241556023136
4.34,-0.007889961271155023,-0.06229819607496301,90.87078436304735
4.35,-0.035741955703756906,0.011776401903396148,89.67830845117521
4.36,-0.0032767052273649276,-0.05939701251567154,88.48812136063104
4.37,-0.03979472269549774,0.00020600119947631747,87.38719830187769
4.38,-0.008493564865669614,-0.05881334245048864,86.46709212803393
4.39,-0.04617567498036628,0.008308715045544805,85.88344268940169
4.4,-0.018323680547764398,-0.07096741321959137,85.77129044433117
4.41,-0.04557207138585169,0.002523514693584889,86.1077471795427
4.42,-0.025868725479196795,-0.07270125664851704,86.9729216415152
4.43,-0.04906434932554326,0.0013733413298421164,88.10588819886013
4.44,-0.02237644753950523,-0.07675261357155129,89.33040760932384
4.45,-0.04440797873928783,0.0036736880573276618,90.36495484956608
4.46,-0.02819691077232451,-0.08138764055976842,91.11797706646806
4.47,-0.049624838377592524,0.007158541681802032,91.43154558839989
4.48,-0.03341377041062919,-0.07907012706565986,91.3857691618405
4.49,-0.06471492824045733,-0.006162869217666497,91.02642421334927
4.5,-0.03341377041062919,-0.07560244020780851,90.4542188813569
4.51,-0.06531853183497191,-0.00789671264659217,89.78130541093384
4.52,-0.024144143780583677,-0.07386859677888284,89.1747677590219
4.53,-0.056005790662461065,-0.00789671264659217,88.60027360570155
4.54,-0.03341377041062919,-0.07560244020780851,88.0852888069084
4.55,-0.060101672196667226,-0.0015278422294493547,87.60234750670682
4.56,-0.023540540186069086,-0.07907012706565986,87.14000559845697
4.57,-0.04557207138585169,-0.0015278422294493547,86.61357669302397
4.58,-0.024704632832632942,-0.07850362376709999,86.04137136103158
4.59,-0.05484169801589721,-0.006162869217666497,85.45543310107138
4.6,-0.02298005113401982,-0.07386859677888284,84.88322776907899
4.61,-0.062386742947329606,-0.009046886010334942,84.2652460105272
4.62,-0.031085585117501483,-0.08660633761316847,83.71592889181451
4.63,-0.05078893102415638,-0.002111512294632254,83.2879193034842
4.64,0.006036035945145919,-0.05361181216371162,83.02928249342365
4.65,-0.02237644753950523,0.03376702994749304,82.83931032320217
4.66,0.0802361635279754,-0.03277135748335751,82.76149039805121
4.67,0.10054311302914488,0.053457311264104385,82.72715807813167
4.68,0.08601351221832935,-0.014265583063734984,82.70426986485197
4.69,0.03035263789559091,0.044770927352853,82.54634119322208
4.7,0.011813384635499871,-0.05824683915192876,82.32203670308105
4.71,-0.05139253461867097,-0.011948069569626414,81.97413586122968
4.72,-0.03224967776406534,-0.08543899748280268,81.5598592008672
4.73,-0.0554453016104118,-0.012531739634809313,81.08836200730546
4.74,-0.025868725479196795,-0.08717284091172835,80.63746420569547
4.75,-0.06643950993907044,-0.014265583063734984,80.31245157712378
4.76,-0.02819691077232451,-0.08138764055976842,80.09959119362262
4.77,-0.09373101531962306,-0.025835983767654815,80.01948244714369
4.78,-0.19806820808571682,-0.09700939818672251,80.09959119362262
4.79,-0.02819691077232451,0.12116303882532073,80.16596701213373
4.8,0.8740180048571291,0.3370179623432554,80.13163469221419
4.81,1.0369478608336036,0.33296660542022116,79.90733020207317
4.82,0.2889536636026282,-0.2590465083414692,79.57087346686164
4.83,-0.026472329073711387,-0.17340150965919024,79.13370859321947
4.84,-0.1540051456861516,-0.212181235460607,78.6278790797382
4.85,-0.08851415568131837,-0.05766316908674587,78.24564591796728
4.86,0.026299870903850078,-0.07907012706565986,77.99845321454656
4.87,-0.006165379572541903,0.008892385110727704,77.88630096947605
4.88,0.02923165979149238,-0.05476198552745439,77.87485686283621
4.89,0.014141569928627582,0.03261685658375026,77.96412089462702
4.9,0.047770913051583416,-0.03914022790050032,78.12204956625692
4.91,0.02690347449836467,0.03493437007785884,78.18842538476804
4.92,0.057040539681628935,-0.043191584823534565,78.11060545961708
4.93,0.0234111965586731,0.03898572700089308,77.82908043627681
4.94,0.06919884065685143,-0.03047101075587196,77.42624788255418
4.95,0.05587644703506508,0.054607484627847154,76.96619479563229
4.96,0.08894530110597165,-0.010780729439260615,76.52674110066214
4.97,0.07557979294171997,0.0858509998817553,76.23606079201001
4.98,0.11852187723718666,0.01699509895679619,76.04379980046056
4.99,0.1098127396591904,0.10322376770425808,75.95453576866974
5.0,0.1683622883271058,0.03898572700089308,76.00031219522914
5.01,0.16314542868880114,0.1425699968042347,76.16739615217092
5.02,0.2159176286663626,0.09568755715674947,76.52674110066214
5.03,0.23273230022784053,0.20334035064974837,77.32553974412352
5.04,0.30693242781067,0.15530773763852035,79.80662206364251
5.05,0.3168056580352301,0.26294336436489624,85.82622215620245
5.06,0.3684137653662277,0.19118627988064565,94.84646700973047
5.07,0.34288995622675356,0.2583083373766791,103.84153482865084
5.08,0.3463822341664451,0.1581917544311888,110.89568216145301
5.09,0.2669221324028456,0.18945243645171997,115.29708557513847
5.1,0.2362245781675321,0.07601444260676114,117.59048454576396
5.11,0.13762161954932695,0.09512105385818959,118.10546934455711
5.12,0.1092091360646758,-0.013681912998552086,116.82601822222213
5.13,0.03384491583528248,0.030883013154824595,113.5346931526019
5.14,0.03906177547358716,-0.05881334245048864,109.23399787734711
5.15,-0.011942728262895854,0.0036736880573276618,105.54899553931612
5.16,0.018194336920368415,-0.08023746719602566,103.01069268659788
5.17,-0.020091376788842846,-0.009046886010334942,101.50693707412188
5.18,0.010088802936886751,-0.07675261357155129,100.47238983387965
5.19,-0.01715958790120054,-0.0032616856583750267,99.58432715862746
5.2,0.012977477282063726,-0.0831214839886941,98.32776424957217
5.21,-0.01310682090945971,-0.006162869217666497,96.86749624232759
5.22,0.015305662575191437,-0.083705154053877,95.51938048015352
5.23,-0.02237644753950523,-0.00848038271177507,94.55349787975037
5.24,0.011813384635499871,-0.08023746719602566,93.95840433447829
5.25,-0.013710424503974302,-0.004995529087300699,93.76843216425681
5.26,0.010088802936886751,-0.07850362376709999,93.78903155620854
5.27,-0.015995495254636685,0.008892385110727704,93.74554395097711
5.28,0.01703024427380456,-0.05766316908674587,93.3633107892062
5.29,-0.01892728414227899,0.00484102818769346,92.35165176224365
5.3,0.014702058980676846,-0.07213475334995717,90.77923150992856
5.31,-0.01310682090945971,-0.0032616856583750267,88.94817444755292
5.32,0.015305662575191437,-0.07096741321959137,86.96147753487534
5.33,-0.015435006202587422,0.00484102818769346,85.44398899443154
5.34,0.01935842956693227,-0.06808339642692292,84.70469970549736
5.35,-0.017763191495715133,-0.0032616856583750267,84.70469970549736
5.36,0.015866151627240702,-0.07445226684406574,85.46687720771122
5.37,-0.025868725479196795,0.00484102818769346,86.88365760972438
5.38,0.0013796653588904959,-0.07618611027299141,88.2203292652586
5.39,-0.03457786305719305,-0.005579199152483599,88.99395087411231
5.4,-0.006165379572541903,-0.07560244020780851,89.29836411073227
5.41,-0.02819691077232451,-0.006162869217666497,89.4311157477545
5.42,0.006036035945145919,-0.07850362376709999,89.82479301616526
5.43,-0.03052509606545222,-0.011364399504443514,90.4084424547975
5.44,-0.007329472219105759,-0.07733628363673418,90.82500793648796
5.45,-0.035138352109242314,-0.005579199152483599,90.63503576626648
5.46,-0.0021126125808010716,-0.09122419783476259,89.98272168779516
5.47,-0.04268339704067471,-0.021200956779437674,89.29836411073227
5.48,-0.008493564865669614,-0.08138764055976842,88.73531406405175
5.49,-0.04557207138585169,-0.012531739634809313,88.10588819886013
5.5,-0.012546331857410446,-0.08197131062495133,87.32082248336657
5.51,-0.03979472269549774,-0.013681912998552086,86.47853623467377
5.52,-0.010778635616332,-0.09065769453620272,85.88344268940169
5.53,-0.03746653740237003,-0.002678015593192127,85.54698595419016
5.54,-0.014270913556023565,-0.08775651097691124,85.27690503748975
5.55,-0.03802702645441929,-0.006729372516226371,84.74818731072878
5.56,-0.01310682090945971,-0.08890668434065402,84.05238562702604
5.57,-0.04906434932554326,-0.01021422614070074,83.53511200690492
5.58,-0.013710424503974302,-0.08485532741761977,83.3108075167639
5.59,-0.015435006202587422,0.02624798616660745,83.24443169825278
5.6,0.0234111965586731,-0.05129429866960305,83.05217070670335
5.61,0.06980244425136602,0.042453413858744425,82.61500583306116
5.62,0.14982303506701478,-0.03047101075587196,82.20988445801055
5.63,0.08661711581284394,0.056341328056772826,82.03135639442893
5.64,0.0871776048648932,-0.02815349726176339,82.01991228778907
5.65,0.0065965249971951835,0.02219662924357321,81.93064825599826
5.66,0.00021557271232663998,-0.09469188469261393,81.60334680609861
5.67,-0.035138352109242314,-0.015999426492660656,81.09751729261734
5.68,-0.010218146564282734,-0.08834018104209414,80.77250466404567
5.69,-0.04212290798862545,-0.011948069569626414,80.70612884553455
5.7,-0.014874517150538159,-0.09527555475779684,80.73817234412613
5.71,-0.05372071991179868,-0.03277135748335751,80.54820017390465
5.72,-0.0432870006351893,-0.09585922482297973,80.11103530026246
5.73,-0.21371878700063088,-0.023518470273546244,79.6715816052923
5.74,-0.0050012869259780475,0.03725188357196741,79.48160943507084
5.75,0.8148648525946991,0.4000886629162546,79.47016532843098
5.76,1.112312081062997,0.280298965420776,79.4243889018716
5.77,0.30348326441344375,-0.16529879581312173,79.11082037993977
5.78,0.04255405341327873,-0.2480597777027323,78.66221139965774
5.79,-0.1684916319545018,-0.13752296741706493,78.41501869623703
5.8,-0.05078893102415638,-0.131737767065105,78.41501869623703
5.81,-0.004397683331463455,-0.009046886010334942,78.48139451474813
5.82,0.024575289205236956,-0.07560244020780851,78.35779816303778
5.83,0.004871943298582064,0.00484102818769346,77.9435215026753
5.84,0.03906177547358716,-0.05881334245048864,77.56128834090438
5.85,0.0309562414901055,0.029715673024458794,77.42624788255418
5.86,0.057040539681628935,-0.041457741394608894,77.48117959442544
5.87,0.02690347449836467,0.027981829595533123,77.50406780770514
5.88,0.06863835160480217,-0.035088870977466075,77.31409563748366
5.89,0.04660682040501956,0.04186974379356152,76.93186247571275
5.9,0.08661711581284394,-0.026986157131397587,76.70755798557173
5.91,0.06398198101854674,0.049972457639630014,76.69611387893188
5.92,0.11214092495231812,-0.009046886010334942,76.71900209221158
5.93,0.10054311302914488,0.0858509998817553,76.47180938879087
5.94,0.1469343607218378,0.02393047267249888,76.01175630186899
5.95,0.13994980484245467,0.11767818520084636,75.68445485196933
5.96,0.20664800203631709,0.06502771196802422,75.70734306524903
5.97,0.20664800203631709,0.16687813834244017,76.13306383225137
5.98,0.2860649892574512,0.1309995961003149,77.213387499053
5.99,0.277355851679455,0.22879866555169662,80.11103530026246
6.0,0.33767309658844885,0.17671469561743433,86.9271452149558
6.01,0.32607528466527563,0.2519394669595363,96.4303313686854
6.02,0.3730270214100178,0.18191622590421136,105.62681546446709
6.03,0.31969433238040706,0.2276313254213308,111.90734118841554
6.04,0.3139169836900531,0.11884552533121215,115.47790246004806
6.05,0.21647811771841186,0.14662135372726895,117.2631830958643
6.06,0.17939961119822978,0.02219662924357321,117.35244712765513
6.07,0.08428893051971623,0.04592110071659577,115.84869151517913
6.08,0.06342149196649748,-0.05302814209852872,112.31017374213819
6.09,0.010649291988936015,-0.002111512294632254,108.2337829570244
6.1,0.0234111965586731,-0.07560244020780851,105.29035872925556
6.11,-0.025308236427147534,-0.01831693998676923,103.41581406164849
6.12,0.016469755221755294,-0.07560244020780851,101.93265784112423
6.13,-0.018323680547764398,-0.013681912998552086,100.50672215379919
6.14,0.010088802936886751,-0.0831214839886941,98.95719011476379
6.15,-0.027593307177809917,-0.02236829690980347,97.62051845922957
6.16,0.019918918618981533,-0.08602266754798557,96.60885943226702
6.17,-0.016599098849151277,-0.013681912998552086,95.8443931087252
6.18,0.020522522213496125,-0.08834018104209414,95.17147963830215
6.19,-0.011942728262895854,-0.022934800208363346,94.64276191154119
6.2,0.018754825972417677,-0.08602266754798557,94.4527897413197
6.21,-0.013710424503974302,-0.022934800208363346,94.55349787975037
6.22,0.022247103912109246,-0.09065769453620272,94.58783019966991
6.23,-0.007329472219105759,-0.002678015593192127,93.95840433447829
6.24,0.028067567144928526,-0.0686498997254828,92.32876354896396
6.25,-0.013710424503974302,-0.017733269921586328,90.24135849785573
6.26,0.01703024427380456,-0.08080397049458553,88.57967421374983
6.27,-0.01310682090945971,-0.014265583063734984,87.44441883507692
6.28,0.014702058980676846,-0.09007402447101981,86.70284072481479
6.29,-0.025868725479196795,-0.025252313702471916,86.2656758511726
6.3,0.0025437580054543515,-0.09122419783476259,86.08485896626301
6.31,-0.03224967776406534,-0.0188834432853291,86.4007163095228
6.32,0.0025437580054543515,-0.09644289488816263,87.34371069664627
6.33,-0.0328101668161146,-0.0200507834156949,88.60027360570155
6.34,-0.007329472219105759,-0.08949035440583691,89.6119326326641
6.35,-0.0409588153420616,-0.0200507834156949,90.16124975137679
6.36,-0.008493564865669614,-0.09585922482297973,90.39699834815765
6.37,-0.03397425946267846,-0.02756982719658049,90.7014115847776
6.38,-0.01138223921084659,-0.10106075510975675,91.10653295982821
6.39,-0.05255662726523482,-0.03625621110783187,91.30794923668954
6.4,-0.014874517150538159,-0.09874324161564818,91.03786831998913
6.41,-0.04906434932554326,-0.02930367062550616,90.30773431636683
6.42,-0.014270913556023565,-0.10049425181119688,89.62337673930394
6.43,-0.04268339704067471,-0.025252313702471916,89.14043543910236
6.44,-0.0050012869259780475,-0.09644289488816263,88.70327056546017
6.45,-0.0432870006351893,-0.0345223676789062,87.97313656183789
6.46,-0.007889961271155023,-0.0981767383170883,87.02785335338646
6.47,-0.046736164032415546,-0.031037514054431833,86.2427876378929
6.48,-0.0050012869259780475,-0.09700939818672251,85.79417865761087
6.49,-0.04268339704067471,-0.025252313702471916,85.56758534614188
6.5,0.0013796653588904959,-0.08023746719602566,85.26546093084991
6.51,-0.03168918871201608,-0.003845355723557926,84.69325559885752
6.52,0.07907207088141154,-0.05939701251567154,84.11876144553716
6.53,0.08601351221832935,0.019312612450904765,83.79374881696548
6.54,0.11153732135780352,-0.04724294174656881,83.67015246525513
6.55,0.055315957983015814,0.03203318651856737,83.59233254010415
6.56,0.024575289205236956,-0.07328492671369995,83.32225162340374
6.57,-0.020091376788842846,-0.026986157131397587,82.82786621656233
6.58,-0.013710424503974302,-0.10627945216315679,82.45707716143126
6.59,-0.05139253461867097,-0.03740638447157465,82.34492491636075
6.6,-0.02298005113401982,-0.11089731238475091,82.32203670308105
6.61,-0.06415443918840806,-0.05766316908674587,82.14350863949943
6.62,-0.01892728414227899,-0.10106075510975675,81.77271958436836
6.63,-0.05716988330902492,-0.03914022790050032,81.39048642259745
6.64,-0.12792084749462815,-0.13000392363617935,81.2211136443277
6.65,-0.1766402804804488,-0.009046886010334942,81.2211136443277
6.66,0.40958815342061594,0.15067271065030322,81.13184961253688
6.67,1.1697406516268138,0.4319158482353456,80.73817234412613
6.68,0.707595870940963,-0.011948069569626414,80.23463165197282
6.69,0.08601351221832935,-0.22143412267041826,79.95310662863257
6.7,-0.059498068602152634,-0.2324380200757782,79.90733020207317
6.71,-0.15344465663410234,-0.11843352293225952,79.95310662863257
6.72,-0.015435006202587422,-0.10164442517493964,79.81806617028236
6.73,0.010649291988936015,-0.03277135748335751,79.36945719000033
6.74,0.025739381851800813,-0.08717284091172835,78.96433581494972
6.75,-0.011942728262895854,-0.016583096557843558,78.81785124995966
6.76,0.0309562414901055,-0.07791995370191708,78.8521835698792
6.77,0.015305662575191437,-0.009630556075517842,78.82929535659952
6.78,0.050659587396760394,-0.05881334245048864,78.55005915458723
6.79,0.02168661486005998,0.012943742033761947,78.09916135297722
6.8,0.05354826174193737,-0.05476198552745439,77.81992515096493
6.81,0.028067567144928526,0.005991201551436233,77.78559283104539
6.82,0.07790797823484769,-0.04204141145979179,77.76270461776569
6.83,0.057040539681628935,0.03840205693571018,77.48117959442544
6.84,0.10575997266744958,-0.015415756427477757,76.95475068899245
6.85,0.08834169751145705,0.055191154693030056,76.50385288738244
6.86,0.1608172433956734,0.02856549966071602,76.31388071716097
6.87,0.1370611304972777,0.0997389140797837,76.35965714372036
6.88,0.2008275388034978,0.07718178273712695,76.48325349543072
6.89,0.20897618732944478,0.16282678141940593,76.68466977229204
6.9,0.2825727113177597,0.11999569869495492,77.65055237269519
6.91,0.2895572671971428,0.2091255510017083,81.5598592008672
6.92,0.3440540488733174,0.1651442949135145,89.94838936787562
6.93,0.3469427232184944,0.23343369253991375,99.30509095661516
6.94,0.3481068158650582,0.1512563807154861,107.2793444632611
6.95,0.27851994432601884,0.1726633386944001,112.54592233891906
6.96,0.2698539212904879,0.08238331302390396,115.75942748338831
6.97,0.15620398735188332,0.0864346699469382,116.96105868057234
6.98,0.13762161954932695,-0.003845355723557926,116.18514825039065
6.99,0.043114542465328,-0.0009441721642664551,113.5575813658816
7.0,0.0454427277584557,-0.07850362376709999,109.8062032093395
7.01,-0.006725868624591167,-0.019467113350512003,106.52632224635911
7.02,0.014702058980676846,-0.09295804126368826,104.06583931879184
7.03,-0.027032818125760652,-0.031037514054431833,102.23707107774418
7.04,-0.0021126125808010716,-0.09295804126368826,100.70813843066051
7.05,-0.026472329073711387,-0.04665927168138591,99.57517187331557
7.06,0.014702058980676846,-0.09700939818672251,98.49484820651395
7.07,-0.024704632832632942,-0.04550909831764313,97.30466111596978
7.08,-0.015435006202587422,-0.10396193866904822,95.9794335670754
7.09,-0.040355211747547005,-0.05361181216371162,94.92428693488144
7.1,0.007157014049244447,-0.10859696565726536,94.38412510148062
7.11,-0.00905405391771888,-0.055345655592637294,94.53060966647067
7.12,0.01703024427380456,-0.10106075510975675,94.65420601818103
7.13,-0.01892728414227899,-0.04260791475835166,94.39556920812046
7.14,0.018754825972417677,-0.09932691168083108,93.4983512475564
7.15,-0.028757399824373774,-0.04377525488871746,92.11590316546278
7.16,0.008321106695808303,-0.09991058174601397,90.5663711264274
7.17,-0.011942728262895854,-0.03972389796568322,88.88179862904181
7.18,0.004871943298582064,-0.10627945216315679,87.36659890992595
7.19,-0.014270913556023565,-0.04724294174656881,86.2656758511726
7.2,0.0025437580054543515,-0.09585922482297973,85.62480587934112
7.21,-0.03630244475580617,-0.04897678517549448,85.52409774091046
7.22,0.0019401544109397598,-0.0981767383170883,85.77129044433117
7.23,-0.03224967776406534,-0.04492542825246024,86.42131570147453
7.24,-0.01138223921084659,-0.09991058174601397,87.20867023829607
7.25,-0.03341377041062919,-0.05939701251567154,87.96169245519805
7.26,-0.014874517150538159,-0.11379849594404237,88.56823010710997
7.27,-0.03690604835032076,-0.05651299572300309,89.15187954574222
7.28,0.00021557271232663998,-0.10106075510975675,89.67830845117521
7.29,-0.04151930439411086,-0.054195482228894525,90.18413796465649
7.3,-0.01310682090945971,-0.10511211203279099,90.57781523306724
7.31,-0.04906434932554326,-0.04956045524067738,90.8593402564075
7.32,-0.014270913556023565,-0.11321482587885948,90.80211972320826
7.33,-0.038630630048933884,-0.05129429866960305,90.25280260449557
7.34,-0.0021126125808010716,-0.1056957820979739,89.44255985439435
7.35,-0.04212290798862545,-0.06113085594459721,88.4766772539912
7.36,-0.01715958790120054,-0.11379849594404237,87.49019526163632
7.37,-0.03690604835032076,-0.05129429866960305,86.55635615982473
7.38,0.009485199342372158,-0.08602266754798557,85.82622215620245
7.39,-0.00905405391771888,-0.009046886010334942,85.37761317592042
7.4,0.09877541678806644,-0.05014412530586028,85.04115644070889
7.41,0.08428893051971623,-0.02988734069068906,84.8374513425196
7.42,0.11153732135780352,-0.05361181216371162,84.68181149221766
7.43,0.05648005062957967,0.0019398446284019895,84.45750700207665
7.44,0.02108301126554539,-0.07386859677888284,84.14164965881685
7.45,-0.025868725479196795,-0.04665927168138591,83.78230471032563
7.46,-0.0021126125808010716,-0.08775651097691124,83.41151565519456
7.47,-0.05078893102415638,-0.07560244020780851,82.91713024835315
7.48,-0.014874517150538159,-0.11668251273671082,82.39070134292014
7.49,-0.069931787878762,-0.07733628363673418,81.98557996786953
7.5,-0.01138223921084659,-0.10684595546171666,81.71549905116912
7.51,-0.05428120896384794,-0.055345655592637294,81.58045859281891
7.52,-0.2056132530171492,-0.13000392363617935,81.5598592008672
7.53,-0.06937129882671274,0.041303240495001656,81.62623501937831
7.54,0.7847277874114348,0.24153640638598223,81.6720114459377
7.55,1.2259620150016015,0.3080747938168328,81.58045859281891
7.56,0.39333397091118727,-0.23532203686844666,81.32411060408633
7.57,0.04893500569814727,-0.2029111814841727,80.95332154895526
7.58,-0.12792084749462815,-0.22721932302237818,80.5138678539851
7.59,-0.10416473459623243,-0.10396193866904822,80.04237066042337
7.6,0.04195044981876414,-0.06518221286763146,79.63724928537276
7.61,0.02108301126554539,-0.04435892495390036,79.38090129664018
7.62,0.04371814605984259,-0.07907012706565986,79.22297262501027
7.63,0.022850707506623838,-0.03567254104264898,79.18864030509073
7.64,0.06980244425136602,-0.0692335697906657,79.28934844352139
7.65,0.028067567144928526,0.008892385110727704,79.4015006885919
7.66,0.05936872497475665,-0.05824683915192876,79.41294479523175
7.67,0.05298777268988811,-0.00848038271177507,79.27790433688155
7.68,0.08312483787315238,-0.04030756803086612,79.0101122415091
7.69,0.05876512138024206,0.00542469825287636,78.6049908664585
7.7,0.12141055158236363,-0.014265583063734984,78.14493777953662
7.71,0.09299806809771248,0.02393047267249888,77.65055237269519
7.72,0.13011968916035987,-0.013681912998552086,77.25687510428442
7.73,0.10864864701262654,0.050556127704812916,76.99823829422387
7.74,0.15965315074910957,0.030883013154824595,76.8975301557932
7.75,0.19388609746658,0.09163620023371523,76.97763890227213
7.76,0.2582561093673147,0.09106969693515535,77.24543099764458
7.77,0.25942020201387855,0.13851863988120047,77.81992515096493
7.78,0.32956756260496717,0.12116303882532073,79.27790433688155
7.79,0.33418081864875726,0.2154944214188511,83.0636148133432
7.8,0.3857889259797549,0.16397695478314872,90.4313306680772
7.81,0.3794079736948863,0.2154944214188511,98.78781733649404
7.82,0.36724967271966386,0.13156609939887476,106.36839357472923
7.83,0.3139169836900531,0.13388361289298334,111.4449992801657
7.84,0.2564884131262362,0.0441872572876701,114.5349080729246
7.85,0.16025675434362416,0.054607484627847154,115.77087159002816
7.86,0.13184427085897302,-0.01831693998676923,115.5122347799676
7.87,0.07734748918279842,-0.01021422614070074,113.72466532282337
7.88,0.07036293330341528,-0.06344836943870578,110.44707318117096
7.89,0.03035263789559091,-0.033938697613723305,106.90855540813004
7.9,0.028628056196977787,-0.08660633761316847,104.14594806527079
7.91,0.028628056196977787,-0.033938697613723305,102.31489100289514
7.92,0.03328442678323321,-0.06518221286763146,101.01255166728046
7.93,0.022247103912109246,-0.05071062860442015,100.03522496023746
7.94,0.03906177547358716,-0.08080397049458553,99.01212182663507
7.95,0.018194336920368415,-0.0345223676789062,98.00275162100048
7.96,0.04255405341327873,-0.08080397049458553,96.94531616747855
7.97,0.018194336920368415,-0.047826611811751706,96.11447402542561
7.98,0.03268082318871862,-0.09585922482297973,95.54226869343321
7.99,0.024575289205236956,-0.043191584823534565,95.3179642032922
8.0,0.05354826174193737,-0.07675261357155129,95.03643917995194
8.01,0.020522522213496125,-0.036822714406391746,94.61071841294961
8.02,0.04949549475019654,-0.08834018104209414,93.90118380127905
8.03,0.0309562414901055,-0.033938697613723305,93.08178576586594
8.04,0.046046331352970295,-0.08255498069013423,91.74511411033173
8.05,0.022850707506623838,-0.033938697613723305,89.94838936787562
8.06,0.05992921402680591,-0.0686498997254828,88.26381687049002
8.07,0.004268339704067471,-0.05014412530586028,86.80354886324545
8.08,0.05182368004332425,-0.06691605629655713,85.96126261455265
8.09,0.01703024427380456,-0.03625621110783187,85.83766626284229
8.1,0.012977477282063726,-0.08775651097691124,86.43275980811438
8.11,-0.007889961271155023,-0.04260791475835166,87.78087557028844
8.12,0.0234111965586731,-0.08197131062495133,89.1747677590219
8.13,-0.01310682090945971,-0.06691605629655713,90.11776214614537
8.14,0.02923165979149238,-0.07270125664851704,90.52059469986801
8.15,-0.010218146564282734,-0.05129429866960305,90.84789614976765
8.16,0.010649291988936015,-0.07560244020780851,91.24157341817842
8.17,-0.004397683331463455,-0.05361181216371162,91.76800232361141
8.18,0.005432432350631327,-0.09180786789994548,92.03808324031182
8.19,0.010088802936886751,-0.04956045524067738,91.79089053689111
8.2,0.014702058980676846,-0.09585922482297973,91.13857645841979
8.21,-0.007329472219105759,-0.05824683915192876,90.48855120127644
8.22,0.015305662575191437,-0.09469188469261393,89.94838936787562
8.23,-0.0038371942794141914,-0.04492542825246024,89.34185171596368
8.24,0.012416988230014463,-0.09007402447101981,88.49956546727088
8.25,-0.0015090089862864798,-0.04492542825246024,87.4993505469482
8.26,0.011813384635499871,-0.0842888241190599,86.76921654332591
8.27,-0.019487773194328255,-0.04260791475835166,86.38927220288296
8.28,0.05182368004332425,-0.06229819607496301,86.16496771274194
8.29,0.018194336920368415,-0.021200956779437674,85.88344268940169
8.3,0.11735778459062281,-0.04030756803086612,85.35472496264072
8.31,0.13762161954932695,-0.00037766886570658205,84.65892327893798
8.32,0.12895559651379604,-0.020617286714254772,84.23091369060766
8.33,0.0680778625527529,-0.014832086362294859,84.14164965881685
8.34,0.05876512138024206,-0.05766316908674587,84.1530937654567
8.35,-0.0021126125808010716,-0.04841028187693461,84.06382973366588
8.36,0.00021557271232663998,-0.10454560873423112,83.65870835861527
8.37,-0.021212354892941373,-0.06056435264603734,83.12083534654244
8.38,-0.009657657512233471,-0.09412538139405406,82.82786621656233
8.39,-0.027593307177809917,-0.06461570956907157,82.83931032320217
8.4,-0.0021126125808010716,-0.10049425181119688,82.89653085640141
8.41,-0.05139253461867097,-0.05939701251567154,82.71571397149182
8.42,-0.15516923833271545,-0.07791995370191708,82.28999320448948
8.43,0.09705083508945332,0.08816851337586387,81.87342772279902
8.44,1.0079317737544378,0.2988219066070215,81.6720114459377
8.45,1.108259314071256,0.19812165359634834,81.68345555257754
8.46,0.23389639287440436,-0.26253136196594357,81.62623501937831
8.47,-0.025308236427147534,-0.1838217369993673,81.28977828416679
8.48,-0.11110617593315024,-0.15951359546116184,80.81828109060505
8.49,-0.03224967776406534,-0.0698172398558486,80.54820017390465
8.5,0.047167309457068825,-0.08717284091172835,80.5367560672648
8.51,0.022850707506623838,-0.04260791475835166,80.64890831233531
8.52,0.047167309457068825,-0.05939701251567154,80.59397660046405
8.53,0.03212033413666936,-0.02815349726176339,80.23463165197282
8.54,0.06919884065685143,-0.04665927168138591,79.8295102769222
8.55,0.050659587396760394,-0.013098242933369185,79.64869339201262
8.56,0.06109330667336977,-0.04550909831764313,79.70591392521185
8.57,0.07096653689792988,-0.019467113350512003,79.80662206364251
8.58,0.08140025617453925,-0.05881334245048864,79.68302571193216
8.59,0.06691376990618905,-0.009630556075517842,79.25730494492981
8.6,0.10282818377980726,-0.0333550275485404,78.84073946323936
8.61,0.09877541678806644,0.012360071968579049,78.63932318637804
8.62,0.13068017821240915,0.00020600119947631747,78.55921443989911
8.63,0.13589703785071383,0.04186974379356152,78.46995040810829
8.64,0.1903938195268884,0.01699509895679619,78.22275770468758
8.65,0.1903938195268884,0.06212652840873274,77.97556500126687
8.66,0.23734555627163062,0.07428059917783547,78.1678259928163
8.67,0.2750707809287926,0.12404705561798918,79.52509704030226
8.68,0.34461453792536667,0.11189298484888643,83.80519292360533
8.69,0.34754632681300895,0.16165944128904014,91.02642421334927
8.7,0.3788474846428371,0.13793496981601758,99.98944853367807
8.71,0.35565186079649064,0.15299022414441177,107.81721747533395
8.72,0.34461453792536667,0.10090625421014951,113.75899764274293
8.73,0.2628693654111048,0.09917241078122384,116.9038381473731
8.74,0.2205308847101527,0.027415326296973252,118.09402523791726
8.75,0.1446061754287101,0.006574871616619133,117.65686036427508
8.76,0.09993950943463029,-0.04030756803086612,115.99517608016917
8.77,0.037897682827023306,-0.041457741394608894,113.02886363912063
8.78,0.03444851942979707,-0.08080397049458553,109.7833149960598
8.79,0.0019401544109397598,-0.06634955299799725,107.05503997312009
8.8,-0.00034491633972262396,-0.09065769453620272,105.22398291074444
8.81,-0.007889961271155023,-0.05651299572300309,104.21232388378189
8.82,-0.0038371942794141914,-0.09700939818672251,103.28077360329829
8.83,-0.015435006202587422,-0.0704009099210315,102.22562697110432
8.84,-0.01892728414227899,-0.09412538139405406,100.78824717713944
8.85,-0.014270913556023565,-0.06286469937352288,99.50650723347648
8.86,-0.004397683331463455,-0.0842888241190599,98.7992614431339
8.87,-0.012546331857410446,-0.06576588293281435,98.83359376305344
8.88,0.0013796653588904959,-0.09469188469261393,99.08078646647415
8.89,-0.021815958487455964,-0.07155108328477428,99.3485785618466
8.9,0.014141569928627582,-0.08543899748280268,99.00067771999521
8.91,-0.010218146564282734,-0.06461570956907157,98.16983557794227
8.92,0.008924710290322895,-0.08660633761316847,97.3847698624487
8.93,0.0065965249971951835,-0.05939701251567154,96.50815129383636
8.94,0.015305662575191437,-0.08660633761316847,94.8670664016822
8.95,0.007157014049244447,-0.06691605629655713,92.55535686043294
8.96,-0.009657657512233471,-0.09585922482297973,90.34206663628638
8.97,-0.013710424503974302,-0.06229819607496301,88.64605003226094
8.98,0.0013796653588904959,-0.0975930682519054,87.84954021012753
8.99,-0.016599098849151277,-0.07213475334995717,87.80376378356814
9.0,-0.015435006202587422,-0.0981767383170883,88.22948455057048
9.01,-0.026472329073711387,-0.07618611027299141,89.31896350268399
9.02,-0.01715958790120054,-0.10049425181119688,90.65563515821822
9.03,-0.029921492470937627,-0.083705154053877,91.96941860047274
9.04,-0.021815958487455964,-0.09412538139405406,92.84603716908508
9.05,-0.03746653740237003,-0.08949035440583691,93.4090872157656
9.06,-0.03630244475580617,-0.09932691168083108,93.53268356747594
9.07,-0.03746653740237003,-0.08255498069013423,93.46401892763686
9.08,-0.03052509606545222,-0.09295804126368826,93.13900629906519
9.09,-0.045011582333802425,-0.083705154053877,92.7911054572138
9.1,-0.029921492470937627,-0.0975930682519054,92.3630958688835
9.11,-0.03802702645441929,-0.08775651097691124,91.86871046204207
9.12,-0.03224967776406534,-0.09700939818672251,91.27361691677
9.13,-0.0432870006351893,-0.07618611027299141,90.64419105157836
9.14,-0.03802702645441929,-0.09122419783476259,90.02849811435455
9.15,-0.03746653740237003,-0.08834018104209414,89.44255985439435
9.16,-0.029361003418888365,-0.09354171132887115,88.85891041576211
9.17,-0.028757399824373774,-0.07560244020780851,88.22948455057048
9.18,-0.027593307177809917,-0.09585922482297973,87.6572792185781
9.19,-0.03341377041062919,-0.08485532741761977,87.09651799322555
9.2,-0.03341377041062919,-0.09932691168083108,86.51286855459331
9.21,-0.03802702645441929,-0.08080397049458553,85.9727067211925
9.22,-0.031085585117501483,-0.09295804126368826,85.57902945278174
9.23,-0.03168918871201608,-0.07850362376709999,85.35472496264072
9.24,-0.03802702645441929,-0.09644289488816263,85.19908511233879
9.25,-0.03341377041062919,-0.07850362376709999,85.16475279241925
9.26,-0.028757399824373774,-0.09932691168083108,85.16475279241925
9.27,-0.023540540186069086,-0.0831214839886941,85.20824039765067
9.28,-0.02237644753950523,-0.09527555475779684,85.13042047249971
9.29,-0.025868725479196795,-0.083705154053877,84.94044830227823
9.3,-0.031085585117501483,-0.09295804126368826,84.61314685237858
9.31,-0.03746653740237003,-0.09412538139405406,84.18742608537625
9.32,-0.023540540186069086,-0.08080397049458553,83.72737299845436
9.33,-0.035741955703756906,-0.07907012706565986,83.29936341012406
9.34,0.0025437580054543515,-0.05881334245048864,82.97435078155237
9.35,-0.005561775978027312,-0.05651299572300309,82.79353389664278
9.36,0.09299806809771248,-0.04087407132942599,82.66993754493242
9.37,0.12779150386723218,-0.028720000560323262,82.69282575821212
9.38,0.102267694727758,-0.033938697613723305,82.78208979000294
9.39,0.055315957983015814,-0.03799005453675755,82.89653085640141
9.4,0.011813384635499871,-0.06634955299799725,82.77293450469105
9.41,-0.004397683331463455,-0.07907012706565986,82.22132856465039
9.42,-0.03168918871201608,-0.0842888241190599,81.58045859281891
9.43,-0.025868725479196795,-0.08660633761316847,81.15473782581658
9.44,-0.03397425946267846,-0.10106075510975675,81.04258558074608
9.45,-0.03746653740237003,-0.09239153796512839,81.20966953768784
9.46,-0.03690604835032076,-0.10859696565726536,81.3332658893982
9.47,-0.07109588052532587,-0.09874324161564818,81.18907014573612
9.48,-0.18302123276531734,-0.07618611027299141,80.73817234412613
9.49,0.10575997266744958,0.066177885331767,80.07670298034292
9.5,0.995212983727166,0.31791135109182694,79.63724928537276
9.51,1.0549266250416454,0.1576080843660059,79.52509704030226
9.52,0.16487001038741425,-0.2561624915488008,79.63724928537276
9.53,-0.03802702645441929,-0.21506525225327544,79.8523984902019
9.54,-0.14240733376297837,-0.18092055344007582,79.90733020207317
9.55,-0.02237644753950523,-0.10279459853868242,79.6715816052923
9.56,0.018754825972417677,-0.08023746719602566,79.15430798517119
9.57,0.013537966334112991,-0.07560244020780851,78.51572683466767
9.58,0.03035263789559091,-0.054195482228894525,78.11060545961708
9.59,0.04255405341327873,-0.04492542825246024,78.02134142782626
9.6,0.036173101128410184,-0.05071062860442015,78.18842538476804
9.61,0.05820463232819279,-0.05129429866960305,78.46995040810829
9.62,0.060532817621320505,-0.03740638447157465,78.6278790797382
9.63,0.05820463232819279,-0.054195482228894525,78.55005915458723
9.64,0.06398198101854674,-0.04087407132942599,78.12204956625692
9.65,0.08079665258002466,-0.03625621110783187,77.46058020247372
9.66,0.08489253411423082,-0.0188834432853291,76.94330658235259
9.67,0.10864864701262654,-0.022934800208363346,76.66178155901234
9.68,0.12257464422892748,-0.0032616856583750267,76.61600513245295
9.69,0.1521512203601425,0.012360071968579049,76.7853779107227
9.7,0.16487001038741425,0.030299343089641696,76.98679418758402
9.71,0.2008275388034978,0.04303708392392733,77.27976331756412
9.72,0.23100771852922738,0.0800657995297954,77.93207739603544
9.73,0.27851994432601884,0.09338721042926391,80.27811925720424
9.74,0.3057683351641061,0.1228968822542464,87.24300255821561
9.75,0.34927090851162207,0.12983225596994907,97.08035662582876
9.76,0.36375739477997227,0.15299022414441177,106.90855540813004
9.77,0.39216987826462346,0.14952253728656043,113.77044174938277
9.78,0.35737644249510375,0.14025248331012616,117.92694128097548
9.79,0.3243507029666625,0.09048602686997245,119.47647332001087
9.8,0.2547638314276231,0.06444404190284131,119.29565643510128
9.81,0.19155791217345228,0.01526125552787052,117.55615222584441
9.82,0.12429922592754061,-0.005579199152483599,114.31060358278359
9.83,0.07907207088141154,-0.04435892495390036,110.81786223630203
9.84,0.03035263789559091,-0.055345655592637294,108.1216307119539
9.85,0.039665379068101754,-0.06634955299799725,106.17842140450774
9.86,0.015305662575191437,-0.05071062860442015,104.53733651235358
9.87,0.019918918618981533,-0.08197131062495133,103.13428903830824
9.88,0.0031042470575036157,-0.05651299572300309,101.78617327613416
9.89,0.020522522213496125,-0.07386859677888284,100.67380611074097
9.9,0.0037078506520182076,-0.06286469937352288,99.88874039524741
9.91,0.023971685610722365,-0.061714526009780106,99.51795134011634
9.92,0.004871943298582064,-0.06113085594459721,99.28220274333547
9.93,0.01935842956693227,-0.08602266754798557,99.28220274333547
9.94,0.014141569928627582,-0.06113085594459721,99.03501003991477
9.95,0.03673359018045945,-0.07501877014262562,98.76492912321436
9.96,0.014702058980676846,-0.061714526009780106,98.27054371637293
9.97,0.036173101128410184,-0.07445226684406574,97.81049062945105
9.98,0.020522522213496125,-0.05766316908674587,97.137577159028
9.99,0.03673359018045945,-0.0692335697906657,95.96798946043555
