time_s,ECG1,ECG2,NIBP
0.0,-0.06021591885602783,-0.029164117572969286,71.65994056655093
0.01,-0.11589600040795392,-0.048266359205702235,71.76109431875571
0.02,-0.07414486805760011,-0.01642928981781399,71.88472668256155
0.03,-0.10778863766755159,-0.0337949640293894,71.96340182316527
0.04,-0.0851451664014059,-0.018744713046024042,71.9746411289658
0.05,-0.11646744447776201,-0.0337949640293894,71.90720529416261
0.06,-0.06485890192321858,-0.009483020133183825,71.65994056655093
0.07,-0.13214644114312157,-0.04016237790696704,71.0979752765244
0.08,-0.10836008173735968,-0.04305665694222961,70.15574680691323
0.09,-0.1379323123499285,-0.021060136274234097,68.8557337693185
0.1,-0.0851451664014059,-0.022217847888339123,67.3178220922792
0.11,-0.11357450887435853,-0.025112126923601694,66.06089306025318
0.12,-0.11646744447776201,-0.03553153145054694,65.68999596883566
0.13,-0.19071945829845113,-0.095749560554804,66.15080750665743
0.14,-0.11707460380193312,-0.02453327111654918,66.81205333125531
0.15,-0.14839688187828923,-0.09980155120417161,67.03683944726593
0.16,-0.10778863766755159,-0.06796448181628335,66.7333781906516
0.17,-0.08110934265838624,-0.0013790388344486354,66.37559362266803
0.18,-0.014964691578099442,0.020634507004342544,66.30815778786486
0.19,-0.15303986494547997,-0.1038535418535392,66.70153349088343
0.2,-0.023107769572864773,0.012530525705607353,67.27286486907708
0.21,-0.03992965437784052,-0.0297429733800218,67.59880473729247
0.22,0.025643552632638185,0.004988375043129014,67.48641167928716
0.23,0.09871696305934811,0.0738892412531738,67.10427528206912
0.24,0.11378880040053657,0.09242965224964989,66.84577124865692
0.25,0.01635758649825667,0.01368823731971238,66.84577124865692
0.26,-0.017857627181502914,-0.027427550151811746,67.12675389367018
0.27,-0.03642955945026594,-0.03263725241528437,67.38525792708239
0.28,-0.055001491719028975,-0.051739494048017316,67.43021515028451
0.29,-0.128646346215547,-0.11832493702985204,67.19418972847336
0.3,-0.06893044092060126,-0.07606846311501855,66.8794891660585
0.31,-0.11182446141057126,-0.09401299313364647,66.8794891660585
0.32,-0.0526800001854336,-0.054633773083279887,67.16047181107177
0.33,-0.08400227826178971,-0.0783838863432286,67.34030070388026
0.34,-0.08632376979538509,-0.017587001431919016,67.0256001414654
0.35,-0.19536244136564188,0.027001920881920192,66.31939709366539
0.36,0.3365448418626039,0.12831871228690572,65.76867110943938
0.37,1.1735675431140085,0.5874705434751186,65.67875666303513
0.38,1.599364805629764,0.46066707138902685,65.88106416744468
0.39,0.3632241368717693,-0.2555478136428891,65.82486763844203
0.4,-0.19189806169243032,-0.2659672181698343,65.24229695444785
0.41,-0.159397180222095,-0.1605984361154812,64.40122223704147
0.42,-0.1257534106121435,-0.08880329087017384,63.77182111221174
0.43,-0.14546823102052275,-0.08533015602785876,63.65942805420643
0.44,-0.13621798014050424,-0.07027990504449341,64.09776098042713
0.45,-0.17450473281764647,-0.10269583023943417,64.64661374701971
0.46,-0.1385394716740996,-0.06391249116691576,64.72528888762344
0.47,-0.14143240727750309,-0.048845215012754746,64.22139334423296
0.48,-0.11011012920114698,-0.04016237790696704,63.54703499620112
0.49,-0.20000542443283265,-0.11774608122279953,63.189250428217555
0.5,-0.15303986494547997,-0.074331895693861,63.301643486222865
0.51,-0.14839688187828923,-0.048845215012754746,63.67066736000696
0.52,-0.1524327056213089,-0.046529791784544694,63.78306041801227
0.53,-0.16693309889268926,-0.0552126288903324,63.290404180422335
0.54,-0.11646744447776201,-0.003115606255606176,62.41373832798093
0.55,-0.1512898174816927,-0.029164117572969286,61.88736417298941
0.56,-0.08225223079800242,0.03279047895244533,62.280739876007985
0.57,-0.13736086828012042,-0.010640731747288853,63.839256947014924
0.58,-0.10778863766755159,0.010793958284449812,66.02717514285159
0.59,-0.14607539034469386,-0.023375559502444153,68.36120431409515
0.6,-0.05150139679145441,0.05768127865570341,70.47044736932808
0.61,-0.09675262406938279,0.006146086657234041,72.04207696376898
0.62,-0.016143294972078635,0.06173326930507101,72.87191237537483
0.63,0.004750128830279776,0.05768127865570341,73.05174126818333
0.64,0.07553776297775733,0.09648164289901748,72.88315168117536
0.65,0.05753727477880239,0.05999670188391347,72.6021690361621
0.66,0.067394684982992,0.0356847579877079,72.37738292015149
0.67,0.07260911211999085,0.03973674863707549,72.18818793917588
0.68,0.03725101030061508,-0.004273317869711203,71.98588043476633
0.69,-0.017857627181502914,-0.04595093597749218,71.73861570715465
0.7,0.0036072406906635887,-0.025112126923601694,71.53630820274509
0.71,0.0006785898328971107,-0.028585261765916775,71.41267583893925
0.72,0.0018571932268763032,-0.03668924306465196,71.37895792153766
0.73,-0.030643688243459002,-0.06333363535986325,71.43515445054032
0.74,-0.026572149246076336,-0.06159706793870571,71.51382959114403
0.75,-0.03992965437784052,-0.0737530398868085,71.54754750854562
0.76,0.00010714576308901749,-0.030900684994126827,71.61498334334881
0.77,-0.0851451664014059,-0.1032746860464867,71.7948122361573
0.78,-0.0416439865872648,-0.05579148469738491,71.96340182316527
0.79,-0.08746665793500127,-0.09169756990543641,72.00835904636739
0.8,-0.021357722109077486,-0.025690982730654205,71.86224807096049
0.81,-0.06021591885602783,-0.05405491727622737,71.58126542594722
0.82,-0.03353662384686248,-0.02800640595886426,71.2440862519313
0.83,-0.08746665793500127,-0.07896274215028112,70.9087802955488
0.84,0.025643552632638185,0.043788739286443085,70.67275487373765
0.85,-0.06950188499040934,-0.05694919631148994,70.51540459253022
0.86,-0.027715037385692524,-0.02453327111654918,70.38053292292385
0.87,-0.09793122746336198,-0.09806498378301406,70.22318264171642
0.88,-0.020179118715098292,-0.018744713046024042,70.18946472431482
0.89,-0.05964447478621974,-0.06391249116691576,70.35805431132279
0.9,-0.030643688243459002,-0.04016237790696704,70.5828404273334
0.91,-0.05557293578883707,-0.06738562600923084,70.70647279113923
0.92,-0.01439324750829135,-0.017587001431919016,70.71771209693976
0.93,-0.01728618311169482,-0.03263725241528437,70.70647279113923
0.94,0.07725209518718161,0.017161372162027462,70.71771209693976
0.95,0.06393030530978043,0.0020940960078664464,70.70647279113923
0.96,0.12250332246510999,0.06462754834033357,70.71771209693976
0.97,0.040143945904018555,0.007882654078391583,70.67275487373765
0.98,0.05232284764180354,0.029317344110130247,70.51540459253022
0.99,-0.026572149246076336,-0.03784695467875699,70.27937917071907
1.0,-0.022500610248693674,-0.0170081456248665,70.00963583150633
1.01,-0.07528775619721628,-0.0783838863432286,69.71928709832595
1.02,-0.0526800001854336,-0.04479322436338715,69.44954375911321
1.03,-0.09153819693238394,-0.09401299313364647,69.20227903150153
1.04,-0.05732298325262436,-0.04421436855633464,69.01121083289252
1.05,-0.061358806995644014,-0.054633773083279887,68.83325515771745
1.06,-0.04685841372426365,-0.0424778011351771,68.63094765330789
1.07,-0.2284347669057853,-0.08880329087017384,68.42864014889832
1.08,-0.11939609533552849,0.046104162514653144,68.17013611548612
1.09,0.4815487745764076,0.24238735661784222,67.8329569414702
1.1,1.348179421694744,0.6210441802841644,67.37401862128186
1.11,1.446789238991003,0.3031842415291518,66.96940361246274
1.12,0.23736358049653675,-0.21676447457037068,66.77833541385372
1.13,-0.2806504687844998,-0.2920327546579931,66.74461749645214
1.14,-0.11414595294416663,-0.11832493702985204,66.6565762676813
1.15,-0.09096675286257584,-0.05926461953969999,66.34187570526645
1.16,-0.09850267153317008,-0.05405491727622737,65.84734625004309
1.17,-0.11707460380193312,-0.08069930957143866,65.43336515305687
1.18,-0.10025271899695737,-0.05347606146917486,65.23105764864732
1.19,-0.14200385134731117,-0.10443239766059172,65.16362181384413
1.2,-0.07239482059381282,-0.014692722396656447,65.1523825080436
1.21,-0.09964555967278627,-0.05058178243391229,65.12990389644254
1.22,-0.07585920026702438,-0.023954415309496664,64.95007500363405
1.23,-0.10546714613395622,-0.0552126288903324,64.61289582961813
1.24,-0.08978814946859666,-0.03321610822233688,64.27758987323563
1.25,-0.10546714613395622,-0.06217592374575822,64.10900028622765
1.26,-0.06253741038962321,-0.0060098852908687436,64.17643612103085
1.27,-0.08343083419198162,-0.02626983853770672,64.3787436254404
1.28,-0.06428745785341049,0.008461509885444096,64.54545999481493
1.29,-0.10893152580716778,-0.03900466629286202,64.88263916883086
1.3,-0.03178657638307519,0.05478699962044085,66.02717514285159
1.31,-0.06485890192321858,-0.009483020133183825,68.13641819808453
1.32,-0.0004642983067190758,0.06404869253328106,70.33557569972172
1.33,-0.025393545852097146,0.007882654078391583,71.87348737676102
1.34,0.029679376375657845,0.05305043219928331,72.6021690361621
1.35,0.0343223594428486,0.03394819056655036,72.68084417676582
1.36,0.11439595972470767,0.10053363354838508,72.55721181295998
1.37,0.11496740379451577,0.0698372506038062,72.52349389555839
1.38,0.12828919367191693,0.0802736803015471,72.6021690361621
1.39,0.07493060365358623,0.008461509885444096,72.66960487096529
1.4,0.12539625806851346,0.07273152963906876,72.61340834196263
1.41,0.03957250183421046,-0.02453327111654918,72.43357944915414
1.42,0.040143945904018555,0.000936384393761419,72.29870777954777
1.43,0.028536488236041657,-0.01990242466012907,72.20879333314352
1.44,0.016929030568064763,-0.023375559502444153,72.17694863337535
1.45,-0.01207175597469597,-0.06796448181628335,72.19755402734299
1.46,0.01635758649825667,-0.021060136274234097,72.20879333314352
1.47,-0.04050109844764861,-0.10211697443238166,72.32118639114883
1.48,0.021572013635255523,-0.021638992081286612,72.5684511187605
1.49,-0.001642901700698268,-0.054633773083279887,72.80447654057166
1.5,0.038393898440231264,-0.0025367504485536625,73.0067840449812
1.51,-0.006857328837697119,-0.05810690792559497,73.16413432618864
1.52,0.03260802723342432,-0.0013790388344486354,73.29713277816158
1.53,0.03260802723342432,-0.01353501078255142,73.30837208396211
1.54,0.022143457705063613,-0.014113866589603934,73.16413432618864
1.55,-0.02192916617888558,-0.07027990504449341,72.93934821017803
1.56,0.03317947130323241,-0.006588741097921257,72.70332278836688
1.57,-0.023679213642672864,-0.06449134697396827,72.43357944915414
1.58,0.007643064433683248,-0.01527157820370896,72.20879333314352
1.59,0.0030000813664924895,-0.045372080170439665,72.03083765796845
1.6,0.032000867909253224,0.006724942464286555,71.96340182316527
1.61,-0.03235802045288328,-0.06912219343038839,72.01959835216792
1.62,0.007071620363875155,-0.01006187594023634,72.13199141017323
1.63,-0.031215132313267096,-0.0697010492374409,72.19755402734299
1.64,0.03725101030061508,0.015424804740869921,72.18818793917588
1.65,0.06043021038220586,0.01368823731971238,72.26498986214618
1.66,0.09464542406196545,0.019476795390237514,72.50101528395732
1.67,0.12539625806851346,0.029317344110130247,72.81571584637219
1.68,0.15846858360865687,0.08779880579322978,72.96182682177908
1.69,0.10103845459294349,0.027580776688972707,72.7819979289706
1.7,0.09464542406196545,0.049577297356968225,72.41110083755308
1.71,0.028536488236041657,-0.026848694344759234,72.09827349277164
1.72,0.013464650894853198,-0.01990242466012907,71.89596598836208
1.73,-0.025393545852097146,-0.06564905858807331,71.86224807096049
1.74,-0.022500610248693674,-0.03900466629286202,71.85100876515996
1.75,-0.08225223079800242,-0.11427294638048445,71.682419178152
1.76,-0.028893640779671718,-0.04305665694222961,71.37895792153766
1.77,-0.055001491719028975,-0.08301473279964872,71.0548912709557
1.78,-0.026000705176268245,-0.030321829187074316,70.79638723754348
1.79,-0.09850267153317008,-0.06449134697396827,70.7289514027403
1.8,-0.1704331938202638,0.031053911531287788,70.74019070854084
1.81,0.3057940078560559,0.13237070293627332,70.63903695633606
1.82,1.2089613601877474,0.601363082844379,70.32433639392119
1.83,1.6370443989827352,0.4183935723033977,69.94407321433657
1.84,0.4630125575620076,-0.08475130022080625,69.71928709832595
1.85,-0.21393437363440493,-0.3007155917637808,69.76424432152807
1.86,-0.05150139679145441,-0.09343413732659396,69.88787668533391
1.87,-0.11414595294416663,-0.13628649221927563,69.82044085053073
1.88,-0.06600179006283477,-0.054633773083279887,69.59565473452011
1.89,-0.07064477313002553,-0.07085876085154592,69.3371507011079
1.9,-0.08050218333421515,-0.06854333762333588,69.14608250249888
1.91,-0.10893152580716778,-0.10211697443238166,69.191039725701
1.92,-0.05732298325262436,-0.03263725241528437,69.31467208950684
1.93,-0.09560973592976661,-0.08012045376438615,69.191039725701
1.94,-0.08050218333421515,-0.046529791784544694,68.75458001711372
1.95,-0.07585920026702438,-0.0552126288903324,68.21509333868825
1.96,-0.061358806995644014,-0.025112126923601694,67.7898729359015
1.97,-0.07414486805760011,-0.04074123371401956,67.47517237348663
1.98,-0.061965966319815116,-0.01006187594023634,67.01436083566487
1.99,-0.07935929519459896,-0.0297429733800218,66.30815778786486
2.0,-0.07935929519459896,-0.0060098852908687436,65.67875666303513
2.01,-0.10082416306676546,-0.043635512749282124,65.68999596883566
2.02,-0.05789442732243245,0.018319083776132488,67.03683944726593
2.03,-0.07357342398779201,-0.01642928981781399,69.49450098231533
2.04,-0.0004642983067190758,0.06694297156854363,71.70489778975306
2.05,-0.046286969654455556,-0.006588741097921257,72.84943376377377
2.06,0.030286535699828945,0.06520640414738609,73.22033085519129
2.07,0.09235964778273308,0.09416621967080743,73.28776668999448
2.08,0.08364512571815966,0.07273152963906876,73.38704722456583
2.09,0.08828810878535041,0.03336933475949784,73.75794431598335
2.1,0.15904002767846495,0.11211074968943535,74.20751654800458
2.11,0.08539517318194693,-0.0013790388344486354,74.48662597538443
2.12,0.08710950539137122,0.03336933475949784,74.53158319858655
2.13,0.05985876631239777,-0.01642928981781399,74.31990960600989
2.14,0.07493060365358623,0.02989619991718276,74.12884140740087
2.15,0.04303688150742203,-0.028585261765916775,74.11760210160034
2.16,0.019821966171468235,-0.022796703695391638,74.27495238280777
2.17,0.020429125495639334,-0.054633773083279887,74.52034389278602
2.18,0.029679376375657845,-0.011219587554341366,74.79008723199875
2.19,-0.007428772907505213,-0.08301473279964872,75.10478779441362
2.2,0.038393898440231264,-0.006588741097921257,75.37453113362636
2.21,0.029679376375657845,-0.0424778011351771,75.64240125520568
2.22,0.02507210856283009,-0.02626983853770672,75.96834112342107
2.23,0.0343223594428486,-0.04189894532812458,76.26056307423487
2.24,0.027357884842062464,-0.017587001431919016,76.47410988444496
2.25,0.030286535699828945,-0.03784695467875699,76.68578347702162
2.26,0.027357884842062464,-0.006588741097921257,76.88809098143118
2.27,0.01867907803185205,-0.03668924306465196,77.00048403943649
2.28,0.02910793230584975,0.007882654078391583,77.1128770974418
2.29,0.022750617029234713,-0.03553153145054694,77.23650946124764
2.3,0.03725101030061508,0.011372814091502325,77.36014182505347
2.31,0.022750617029234713,-0.03147954080117934,77.53997071786196
2.32,0.027965044166233563,-0.00022132722034360814,77.75164431043862
2.33,0.027965044166233563,-0.025112126923601694,78.02138764965136
2.34,0.04303688150742203,0.013109381512659866,78.35856682366729
2.35,0.11961038686170652,0.016003660547922433,78.60583155127897
2.36,0.13818231913046955,0.05999670188391347,78.69574599768322
2.37,0.13003924113570423,0.030475055724235273,78.67326738608214
2.38,0.1416466988036811,0.09590278709196497,78.63954946868056
2.39,0.06393030530978043,-0.004273317869711203,78.63954946868056
2.4,0.022143457705063613,0.01195166989855484,78.70698530348375
2.41,0.019821966171468235,-0.03321610822233688,78.71822460928428
2.42,-0.028893640779671718,-0.048845215012754746,78.56087432807685
2.43,-0.04221543065707289,-0.08764557925606882,78.31360960046517
2.44,-0.019036230575482108,-0.0297429733800218,78.04386626125243
2.45,-0.0526800001854336,-0.1032746860464867,77.72916569883756
2.46,-0.05789442732243245,-0.08475130022080625,77.48377418885931
2.47,-0.02946508484947981,-0.08475130022080625,77.27022737864922
2.48,-0.09210964100219203,-0.07317418407975598,76.97800542783543
2.49,-0.21857735670159567,-0.05405491727622737,76.58462972481685
2.5,0.2727573975702755,0.14105354004206103,76.21560585103275
2.51,1.1596743091667994,0.5533010256882247,75.93462320601948
2.52,1.6712953279168579,0.4728230433371296,75.6873584784078
2.53,0.5616223748582667,-0.09227642571248892,75.44196696842955
2.54,-0.20118402782681183,-0.29955788014967577,75.1722236292168
2.55,-0.10603859020376431,-0.20229307939405783,74.83504445520089
2.56,-0.038179606914053234,-0.04016237790696704,74.52034389278602
2.57,-0.06021591885602783,-0.08706672344901631,74.30867030020936
2.58,-0.08575232572557699,-0.06738562600923084,74.11760210160034
2.59,-0.07007332906021743,-0.0864878676419638,73.91529459719078
2.6,-0.12286047500874006,-0.09748612797596155,73.72422639858176
2.61,-0.07760924773081167,-0.0864878676419638,73.45448305936902
2.62,-0.06893044092060126,-0.03437381983644191,73.0405019623828
2.63,-0.07646635959119548,-0.07896274215028112,72.59092973036157
2.64,-0.08282367486781052,-0.04189894532812458,72.22003263894405
2.65,-0.08457372233159781,-0.08533015602785876,72.01959835216792
2.66,-0.04514408151483937,0.007882654078391583,71.94092321156421
2.67,-0.08807381725917238,-0.07664731892207106,71.71613709555359
2.68,-0.09210964100219203,-0.03611038725759945,71.36771861573713
2.69,-0.06660894938700587,-0.04305665694222961,71.25532555773182
2.7,-0.07646635959119548,0.006146086657234041,71.78357293035677
2.71,-0.07239482059381282,-0.03321610822233688,73.5219188941722
2.72,-0.061358806995644014,0.021213362811395055,76.305520297437
2.73,-0.039322495053669415,-0.0060098852908687436,78.89618028445935
2.74,-0.03467951198647866,0.026423065074867677,80.51276710210236
2.75,0.0238935051688509,0.03684246960181292,81.084098480296
2.76,0.05114424424782435,0.08374681514386219,80.99418403389176
2.77,0.07725209518718161,0.03452704637360287,80.70383530071138
2.78,0.06682324091318391,0.046104162514653144,80.45657057309971
2.79,0.1114673088669412,0.040315604444128,80.40037404409705
2.8,0.08246652232418046,0.047840729935810684,80.36665612669546
2.81,0.07668065111737352,-0.01006187594023634,80.24302376288962
2.82,0.079573586720777,0.042052171865285544,79.98451972947741
2.83,0.01635758649825667,-0.05868576373264748,79.72788891369862
2.84,-0.03296517977705438,-0.0552126288903324,79.503102797688
2.85,-0.014964691578099442,-0.08475130022080625,79.44690626868535
2.86,-0.00453583730410174,-0.01990242466012907,79.54806002089013
2.87,-0.03467951198647866,-0.08880329087017384,79.81780336010287
2.88,-0.043394034051052084,-0.046529791784544694,80.13063070488431
2.89,-0.028322196709863624,-0.0824358769925962,80.42285265569811
2.9,-0.017857627181502914,-0.02626983853770672,80.69259599491085
2.91,-0.006285884767889026,-0.06796448181628335,80.91738211092147
2.92,-0.021357722109077486,-0.02800640595886426,81.07285917449548
2.93,-0.007428772907505213,-0.06333363535986325,81.07285917449548
2.94,-0.05150139679145441,-0.05579148469738491,80.96233933412358
2.95,-0.016143294972078635,-0.06680677020217833,80.77127113551457
2.96,-0.03296517977705438,-0.029164117572969286,80.46780987890024
2.97,-0.024250657712480958,-0.07664731892207106,80.15310931648537
2.98,-0.03992965437784052,-0.03958352209991453,79.77284613690075
2.99,-0.03353662384686248,-0.07548960730796604,79.34575251648057
3.0,-0.007428772907505213,0.0020940960078664464,79.10972709466942
3.01,0.08246652232418046,0.026423065074867677,79.00857334246466
3.02,0.06043021038220586,0.019476795390237514,79.00857334246466
3.03,0.10510999359032616,0.007303798271339069,79.05353056566678
3.04,0.10800292919372963,0.07273152963906876,79.08724848306836
3.05,0.10625288172994235,0.030475055724235273,79.1322057062705
3.06,0.04882275271422897,0.044946450900548114,79.23335945847526
3.07,-0.018464786505674013,-0.06042233115380502,79.30079529327845
3.08,-0.024250657712480958,-0.014113866589603934,79.36823112808163
3.09,-0.039322495053669415,-0.07722617472912358,79.4244276570843
3.1,-0.08632376979538509,-0.07664731892207106,79.32327390487951
3.11,-0.06021591885602783,-0.10153811862532915,79.07600917726784
3.12,-0.05150139679145441,-0.04132008952107207,78.83998375545669
3.13,-0.07182337652400472,-0.1252712067144822,78.66202808028162
3.14,-0.05325144425524169,-0.03784695467875699,78.4709598816726
3.15,-0.09850267153317008,-0.11369409057343194,78.22369515406092
3.16,-0.26440002804933216,-0.02626983853770672,77.87527667424446
3.17,0.17993345148082338,0.07273152963906876,77.45005627145771
3.18,1.0134917730590165,0.525515946949704,77.06791987423966
3.19,1.630079924381949,0.4728230433371296,76.87685167563065
3.2,0.6724110938923108,0.02005565119729003,76.76445861762534
3.21,-0.16811170228666844,-0.3169235543612512,76.57526363664974
3.22,-0.1524327056213089,-0.19417207292452698,76.28304168583594
3.23,-0.06950188499040934,-0.11774608122279953,75.92338390021895
3.24,-0.10139560713657356,-0.07780503053617609,75.58620472620302
3.25,-0.09500257660559551,-0.11600951380164198,75.3520525220253
3.26,-0.11532455633814583,-0.07722617472912358,75.18346293501735
3.27,-0.10257421053055274,-0.11600951380164198,74.99239473640831
3.28,-0.08110934265838624,-0.03205839660823186,74.79008723199875
3.29,-0.09500257660559551,-0.10095926281827663,74.52034389278602
3.3,-0.08400227826178971,-0.03263725241528437,74.16255932480246
3.31,-0.10836008173735968,-0.11543065799458947,73.75794431598335
3.32,-0.1257534106121435,-0.06449134697396827,73.42076514196742
3.33,-0.08575232572557699,-0.08069930957143866,73.22033085519129
3.34,-0.09560973592976661,-0.03205839660823186,73.14165571458757
3.35,-0.07935929519459896,-0.06564905858807331,73.14165571458757
3.36,-0.09210964100219203,-0.014692722396656447,73.05174126818333
3.37,-0.0631088544594313,-0.04132008952107207,73.22033085519129
3.38,-0.06600179006283477,0.019476795390237514,74.29743099440883
3.39,-0.06253741038962321,-0.0384258104858095,76.49658849604602
3.4,-0.03642955945026594,0.047261874128758166,78.90741959025988
3.41,-0.012643200044504064,-0.0060098852908687436,80.62516016010767
3.42,-0.011500311904887877,0.0356847579877079,81.47747418331458
3.43,0.04942991203840007,0.010215102477397299,81.60110654712042
3.44,0.05114424424782435,0.051313864778125766,81.45499557171352
3.45,0.11439595972470767,0.03452704637360287,81.3763204311098
3.46,0.12307476653491808,0.08721994998617727,81.38755973691033
3.47,0.10393139019634696,0.0032518076219714732,81.4100383485114
3.48,0.067394684982992,0.026423065074867677,81.33136320790769
3.49,0.06043021038220586,-0.03553153145054694,81.09533778609654
3.5,0.018107633962043956,-0.022217847888339123,80.83870697031774
3.51,0.02621499670244628,-0.07606846311501855,80.70383530071138
3.52,-0.017857627181502914,-0.050002926626859776,80.81622835871669
3.53,0.012286047500874005,-0.08417244441375374,81.09533778609654
3.54,-0.013821803438483255,-0.051160638240964805,81.34260251370821
3.55,0.006500176294067061,-0.09227642571248892,81.53367071231723
3.56,-0.026572149246076336,-0.051739494048017316,81.71349960512573
3.57,0.016929030568064763,-0.08012045376438615,81.91580710953528
3.58,-0.009750264441100592,-0.03668924306465196,82.17243792531407
3.59,0.006500176294067061,-0.08359358860670123,82.38598473552416
3.6,-0.008571661047121398,-0.03726809887170448,82.49837779352947
3.61,-0.028893640779671718,-0.12179807187216712,82.45342057032734
3.62,-0.03760816284424514,-0.06622791439512582,82.21739514851619
3.63,-0.028893640779671718,-0.11311523476637941,81.8483712747321
3.64,-0.039322495053669415,-0.04479322436338715,81.43251696011247
3.65,-0.003964393234293647,-0.08417244441375374,80.98294472809123
3.66,-0.031215132313267096,-0.0384258104858095,80.61392085430714
3.67,-0.003964393234293647,-0.07259532827270347,80.47904918470077
3.68,0.034929518767019704,0.022371074425500084,80.53524571370342
3.69,0.04189399336780584,-0.06738562600923084,80.61392085430714
3.7,0.14628968187087188,0.08721994998617727,80.68135668911032
3.71,0.1555756480052534,0.047840729935810684,80.74879252391351
3.72,0.1520755530776788,0.10863761484712027,80.84994627611829
3.73,0.1439681903372765,0.06404869253328106,80.93986072252252
3.74,0.02507210856283009,0.02989619991718276,80.98294472809123
3.75,-0.001642901700698268,-0.07259532827270347,80.9717054222907
3.76,0.016929030568064763,0.009057390863292271,80.90614280512094
3.77,-0.020179118715098292,-0.09864383959006658,80.82746766451721
3.78,-0.05614437985864516,-0.08533015602785876,80.70383530071138
3.79,0.0036072406906635887,-0.09632841636185653,80.41161334989758
3.8,-0.014964691578099442,-0.05347606146917486,79.97328042367688
3.81,0.02507210856283009,-0.09864383959006658,79.58177793829172
3.82,-0.005107281373909834,-0.04132008952107207,79.32327390487951
3.83,-0.16346871921947767,-0.06449134697396827,79.0984877888689
3.84,0.08539517318194693,0.14279010746321857,78.8062658380551
3.85,0.6781969650991178,0.2794341282692031,78.39228474106888
3.86,1.4908618628749524,0.6679485258262137,77.87527667424446
3.87,1.2594270146026745,0.22907367305563442,77.42757765985665
3.88,0.0679661290528001,-0.2387609952383662,77.14659501484338
3.89,-0.18550503116145228,-0.2706150897970501,76.94428751043382
3.9,-0.08575232572557699,-0.08590901183491129,76.70826208862269
3.91,-0.05150139679145441,-0.08938214667722637,76.33923821483859
3.92,-0.07182337652400472,-0.03900466629286202,75.91214459441842
3.93,-0.005678725443717927,-0.025690982730654205,75.60868333780408
3.94,-0.10025271899695737,-0.07896274215028112,75.39700974522742
3.95,-0.04050109844764861,-0.0864878676419638,75.2059415466184
3.96,-0.06021591885602783,-0.017587001431919016,74.82380514940036
3.97,-0.0416439865872648,-0.05058178243391229,74.27495238280777
3.98,-0.0851451664014059,-0.04132008952107207,73.71298709278123
3.99,-0.06718039345681397,-0.08069930957143866,73.27652738419394
4.0,-0.06485890192321858,-0.01179844336139388,73.06298057398386
4.01,-0.043394034051052084,-0.051739494048017316,72.95058751597855
4.02,-0.059037315462048635,-0.00369446206265869,72.77075862317007
4.03,-0.001642901700698268,0.00035752858670890544,72.54597250715945
4.04,-0.07064477313002553,-0.009483020133183825,72.48977597815679
4.05,-0.026000705176268245,-0.03726809887170448,73.02926265658228
4.06,-0.031215132313267096,0.03684246960181292,74.81256584359983
4.07,-0.013214644114312156,-0.0025367504485536625,77.58492794106408
4.08,-0.0022143457705063613,0.06115441349801849,80.13063070488431
4.09,0.07321627144416196,0.06462754834033357,81.61234585292095
4.1,0.01403609496466129,0.048419585742863196,82.11624139631142
4.11,0.09525258338613654,0.045525306707600625,82.05067877914165
4.12,0.08364512571815966,0.07504695286727882,81.79217474572944
4.13,0.1526827124018499,0.05362928800633582,81.61234585292095
4.14,0.12889635299608804,0.08143139191565213,81.5561493239183
4.15,0.134682224202895,0.0316327673383403,81.48871348911511
4.16,0.09928840712915621,0.047840729935810684,81.2976452905061
4.17,0.07260911211999085,-0.04595093597749218,80.9717054222907
4.18,0.04710842050480469,0.0015152402008139327,80.68135668911032
4.19,0.08653806132156312,-0.008904164326131312,80.52400640790289
4.2,0.01635758649825667,-0.014692722396656447,80.51276710210236
4.21,0.02100056956544743,-0.07317418407975598,80.71507460651192
4.22,0.013464650894853198,-0.018744713046024042,81.03914125709389
4.23,0.029679376375657845,-0.05405491727622737,81.33136320790769
4.24,-0.0027857898403144546,-0.0297429733800218,81.5561493239183
4.25,0.04246543743761393,-0.0337949640293894,81.72473891092626
4.26,0.022143457705063613,0.010215102477397299,81.85961058053263
4.27,0.04710842050480469,-0.03726809887170448,81.96076433273741
4.28,-0.012643200044504064,-0.03784695467875699,82.01696086174006
4.29,0.04882275271422897,-0.047108647591597205,81.89332849793422
4.3,0.009964555967278627,-0.030321829187074316,81.5898672413199
4.31,0.05871587817278159,-0.0424778011351771,81.1515343150992
4.32,0.059287322242589674,0.012530525705607353,80.62516016010767
4.33,0.06564463751920471,-0.03611038725759945,80.11939139908378
4.34,0.03317947130323241,-0.007746452712026284,79.79532474850181
4.35,0.09060960031894578,-0.023954415309496664,79.6829316904965
4.36,0.09350253592234926,0.03510590218065538,79.71664960789809
4.37,0.17936200741101527,0.018319083776132488,79.84028197170393
4.38,0.16254012260603953,0.0698372506038062,79.96204111787635
4.39,0.19732678035560722,0.027580776688972707,80.018237646879
4.4,0.12136043432549382,0.047840729935810684,80.07443417588166
4.41,0.14107525473387303,0.022371074425500084,80.1980665396875
4.42,0.055787227315015106,0.007882654078391583,80.24302376288962
4.43,0.10278850205673078,-0.008325308519078799,80.15310931648537
4.44,0.026786440772254373,-0.020481280467181583,79.9395625062753
4.45,0.0238935051688509,-0.06738562600923084,79.67169238469597
4.46,-0.031215132313267096,-0.05579148469738491,79.33451321068004
4.47,0.040143945904018555,-0.046529791784544694,78.97485542506305
4.48,0.027965044166233563,0.0032518076219714732,78.63954946868056
4.49,0.05521578324520701,-0.0297429733800218,78.35856682366729
4.5,-0.07703780366100357,-0.021060136274234097,78.13378070765667
4.51,-0.08864526132898047,0.017161372162027462,77.88651598004499
4.52,0.3957250183421046,0.16885564395137734,77.57368863526355
4.53,1.2599984586724826,0.6083093525290091,77.28146668444975
4.54,1.569185415693024,0.5069925611240236,77.0791591800402
4.55,0.508263784839936,-0.12353463929332466,76.91056959303224
4.56,-0.14721827848431002,-0.20171422358700533,76.71950139442322
4.57,-0.041072542517456706,-0.14554818513211584,76.49658849604602
4.58,0.0012857491570682099,0.00035752858670890544,76.24932376843434
4.59,-0.019036230575482108,-0.07548960730796604,76.00205904082266
4.6,-0.06893044092060126,-0.051739494048017316,75.76603361901152
4.61,-0.01439324750829135,-0.06680677020217833,75.55248680880143
4.62,-0.03992965437784052,-0.01990242466012907,75.38577043942689
4.63,-0.01439324750829135,-0.06796448181628335,75.19470224081788
4.64,-0.03178657638307519,-0.006588741097921257,74.98115543060779
4.65,0.022143457705063613,-0.01353501078255142,74.75636931459717
4.66,-0.0521085561156255,-0.022796703695391638,74.44166875218231
4.67,0.015786142428448578,-0.004852173676763717,74.1400807132014
4.68,-0.04050109844764861,0.00267295181491896,73.91529459719078
4.69,0.0024286372966843962,-0.004852173676763717,73.75794431598335
4.7,-0.07528775619721628,-0.02453327111654918,73.6680298695791
4.71,-0.026000705176268245,-0.017587001431919016,73.65679056377857
4.72,-0.043394034051052084,0.03510590218065538,73.88157667978919
4.73,0.0128574915706821,0.03221162314539282,74.81256584359983
4.74,-0.02714359331588443,0.05594471123454587,76.71950139442322
4.75,0.050572800178016256,0.06752182737559614,78.97485542506305
4.76,0.0024286372966843962,0.08085253610859962,80.80498905291616
4.77,0.06971617651658737,0.08258910352975715,81.88208919213369
4.78,0.08307368164835156,0.14221125165616605,82.23987376011726
4.79,0.09814551898954002,0.07041610641085871,82.17243792531407
4.8,0.12539625806851346,0.14221125165616605,82.06004486730876
4.81,0.165433058209443,0.09416621967080743,82.08252347890982
4.82,0.09235964778273308,0.06636411576149112,82.16119861951354
4.83,0.12250332246510999,0.027001920881920192,82.1836772311146
4.84,0.051751403571995445,0.013109381512659866,82.02820016754059
4.85,0.12600341739268456,0.02526535346076265,81.74721752252732
4.86,0.046501261180633593,0.01195166989855484,81.53367071231723
4.87,0.07725209518718161,-0.0170081456248665,81.443756265913
4.88,0.041286834043634736,0.004988375043129014,81.49995279491564
4.89,0.051751403571995445,-0.04074123371401956,81.66854238192361
4.9,0.011143159361257819,-0.030321829187074316,81.90456780373475
4.91,0.06450174937958852,-0.04595093597749218,82.11624139631142
4.92,0.017500474637872857,-0.019323568853076557,82.31854890072097
4.93,0.06971617651658737,-0.030900684994126827,82.50961709933
4.94,0.01403609496466129,-0.030321829187074316,82.64448876893637
4.95,0.10625288172994235,-0.0008001830273961217,82.66696738053743
4.96,0.009393111897470533,-0.03321610822233688,82.55457432253212
4.97,0.056965830708994296,-0.04305665694222961,82.31854890072097
4.98,0.008250223757854346,-0.027427550151811746,81.98324294433847
4.99,0.09060960031894578,-0.007167596904973771,81.5898672413199
5.0,0.02621499670244628,-0.009483020133183825,81.18525223250079
5.01,0.05346573578141973,-0.045372080170439665,80.87242488771935
5.02,0.0128574915706821,-0.025690982730654205,80.77127113551457
5.03,0.04942991203840007,-0.04132008952107207,80.83870697031774
5.04,0.013464650894853198,-0.021638992081286612,80.93986072252252
5.05,0.0679661290528001,-0.03437381983644191,80.9717054222907
5.06,0.03317947130323241,-0.008325308519078799,80.98294472809123
5.07,0.09696691559556082,-0.008325308519078799,81.02790195129336
5.08,0.06043021038220586,-0.02453327111654918,81.09533778609654
5.09,0.1538256005414661,-0.015850434010761475,81.14029500929865
5.1,0.14861117340446725,0.06231212511212352,81.084098480296
5.11,0.20486269902620144,0.07446809706022631,80.91738211092147
5.12,0.10625288172994235,0.05247157639223079,80.73755321811298
5.13,0.09175248845856197,0.0020940960078664464,80.47904918470077
5.14,0.01925052210166014,-0.007167596904973771,80.22054515128856
5.15,0.09696691559556082,0.017161372162027462,79.96204111787635
5.16,-0.049787064582030124,-0.07259532827270347,79.62673516149384
5.17,-0.005678725443717927,-0.10095926281827663,79.28955598747793
5.18,-0.03467951198647866,-0.06796448181628335,78.96361611926253
5.19,0.014607539034469385,-0.06564905858807331,78.67326738608214
5.2,-0.01439324750829135,-0.047687503398649723,78.41476335266994
5.21,0.0238935051688509,-0.05347606146917486,78.13378070765667
5.22,-0.21682730923780838,-0.023954415309496664,77.8527980626434
5.23,0.15036122086825454,0.0889565174073348,77.59616724686461
5.24,0.8162721384664983,0.4218667071457128,77.38262043665453
5.25,1.6161866904347397,0.6708428048614763,77.13535570904286
5.26,1.16431729223399,0.19374644365463542,76.88809098143118
5.27,0.05985876631239777,-0.2271838790973159,76.65206555962003
5.28,-0.12461052247252734,-0.1906989380822119,76.39543474384125
5.29,-0.020179118715098292,-0.10964209992406433,76.18188793363116
5.3,-0.059037315462048635,-0.05637034050443743,76.03577695822426
5.31,0.00882166782766244,-0.04479322436338715,75.88966598281736
5.32,-0.06832328159643015,-0.05752805211854245,75.64240125520568
5.33,0.0024286372966843962,-0.04595093597749218,75.37453113362636
5.34,-0.04396547812086018,-0.03205839660823186,75.11602710021415
5.35,-0.031215132313267096,-0.07954159795733363,74.86876237260248
5.36,-0.06428745785341049,-0.0552126288903324,74.65521556239239
5.37,0.005928732224258968,-0.022796703695391638,74.40795083478072
5.38,-0.02946508484947981,-0.008325308519078799,74.03892696099662
5.39,-0.012643200044504064,-0.04074123371401956,73.60059403477592
5.4,-0.04282258998124399,-0.009483020133183825,73.31961138976264
5.41,0.019821966171468235,0.00035752858670890544,73.31961138976264
5.42,-0.06600179006283477,-0.02453327111654918,73.60059403477592
5.43,-0.01439324750829135,-0.03437381983644191,74.24123446540618
5.44,-0.05557293578883707,-0.008904164326131312,75.63116194940515
5.45,0.034929518767019704,0.010793958284449812,77.79660153364075
5.46,0.04071538997382665,0.0698372506038062,80.018237646879
5.47,0.05753727477880239,0.030475055724235273,81.65730307612307
5.48,0.05114424424782435,0.06752182737559614,82.46465987612787
5.49,0.08828810878535041,0.021213362811395055,82.6557280747369
5.5,0.08653806132156312,0.05883899026980844,82.53209571093106
5.51,0.19211235321860837,0.09242965224964989,82.44218126452681
5.52,0.13757515980629845,0.07157381802496374,82.48713848772894
5.53,0.1892194176152049,0.06404869253328106,82.56581362833265
5.54,0.1341107801330869,0.06115441349801849,82.49837779352947
5.55,0.12018183093151462,-0.012377299168446394,82.27359167751885
5.56,0.06914473244677928,-0.00369446206265869,82.11624139631142
5.57,0.12425336992889728,-0.0008001830273961217,82.16119861951354
5.58,0.06625179684337582,-0.003115606255606176,82.35226681812256
5.59,0.10686004105411344,-0.01527157820370896,82.61077085153477
5.6,0.03375091537304051,-0.04189894532812458,82.90299280234858
5.61,0.09175248845856197,-0.028585261765916775,83.21582014713002
5.62,0.027357884842062464,-0.0337949640293894,83.49680279214328
5.63,0.09464542406196545,-0.02800640595886426,83.69911029655285
5.64,0.038393898440231264,-0.030900684994126827,83.91265710676292
5.65,0.09928840712915621,-0.01642928981781399,84.08124669377088
5.66,0.041286834043634736,-0.019323568853076557,84.19363975177619
5.67,0.09814551898954002,-0.022796703695391638,84.24983628077885
5.68,0.04189399336780584,-0.021060136274234097,84.18240044597566
5.69,0.14628968187087188,0.03915789283002298,83.96885363576558
5.7,0.04767986457461278,-0.010640731747288853,83.65415307335071
5.71,0.09235964778273308,-0.014692722396656447,83.22705945293055
5.72,0.01053600003708672,-0.046529791784544694,82.74564252114114
5.73,0.08596661725175503,-0.023954415309496664,82.35226681812256
5.74,0.04710842050480469,-0.014113866589603934,82.14995931371301
5.75,0.12889635299608804,0.014845948933817407,82.19491653691513
5.76,0.034929518767019704,-0.022796703695391638,82.35226681812256
5.77,0.08307368164835156,-0.02453327111654918,82.45342057032734
5.78,0.08364512571815966,0.027580776688972707,82.44218126452681
5.79,0.10686004105411344,-0.00022132722034360814,82.38598473552416
5.8,0.05985876631239777,0.016003660547922433,82.35226681812256
5.81,0.07843069858116081,-0.0170081456248665,82.3635061239231
5.82,-0.00453583730410174,-0.0552126288903324,82.3635061239231
5.83,0.09871696305934811,0.00035752858670890544,82.27359167751885
5.84,0.04417976964703821,-0.0060098852908687436,82.12748070211195
5.85,0.15093266493806265,0.04899844154991571,81.94952502693688
5.86,0.022750617029234713,-0.03263725241528437,81.7022602993252
5.87,0.13178928859949152,0.03279047895244533,81.43251696011247
5.88,0.08421656978796775,0.03857903702297046,81.18525223250079
5.89,0.1416466988036811,0.03742132540886544,80.928621416722
5.9,0.11264591226092038,0.019476795390237514,80.65887807750926
5.91,0.19096946507899218,0.04320988347939057,80.3104595976928
5.92,0.1451110784768927,0.06810068318264866,79.96204111787635
5.93,0.16832599381284646,0.05768127865570341,79.63797446729438
5.94,0.079573586720777,0.019476795390237514,79.31203459907898
5.95,0.12946779706589615,0.030475055724235273,78.99733403666413
5.96,0.011143159361257819,-0.03668924306465196,78.71822460928428
5.97,0.04710842050480469,-0.05810690792559497,78.42600265847048
5.98,0.006500176294067061,-0.04016237790696704,78.13378070765667
5.99,0.079573586720777,-0.014113866589603934,77.83031945104234
6.0,-0.024250657712480958,-0.07085876085154592,77.52873141206143
6.01,0.0343223594428486,-0.05868576373264748,77.23650946124764
6.02,-0.008000216977313306,-0.052897205662122346,76.97800542783543
6.03,-0.026000705176268245,-0.052897205662122346,76.71950139442322
6.04,-0.16461160735909386,0.015424804740869921,76.4516312728439
6.05,0.41368979128669653,0.18101161589948012,76.19312723943169
6.06,1.2292833399202976,0.5608261511799073,75.95710181762054
6.07,1.7733695248863284,0.4589305039678693,75.72107639580939
6.08,0.5291214933879314,-0.003115606255606176,75.47568488583114
6.09,-0.14200385134731117,-0.27293051302526017,75.1722236292168
6.1,-0.06485890192321858,-0.13339221318401306,74.90248029000406
6.11,0.019821966171468235,-0.048266359205702235,74.68893347979399
6.12,-0.061965966319815116,-0.07027990504449341,74.4753866695839
6.13,-0.009178820371292497,-0.054633773083279887,74.27495238280777
6.14,-0.07993073926440705,-0.06854333762333588,74.05016626679715
6.15,-0.008571661047121398,-0.05058178243391229,73.80290153918547
6.16,-0.04571552558464746,-0.03900466629286202,73.45448305936902
6.17,0.013464650894853198,-0.021638992081286612,73.11917710298651
6.18,-0.07878785112479086,-0.06622791439512582,72.88315168117536
6.19,-0.012643200044504064,-0.04132008952107207,72.62464764776315
6.2,-0.05092995272164631,-0.03668924306465196,72.23127194474458
6.21,-0.0022143457705063613,-0.026848694344759234,71.77233362455624
6.22,-0.0747163121274082,-0.0384258104858095,71.43515445054032
6.23,0.026786440772254373,0.014267093126764894,71.43515445054032
6.24,-0.06950188499040934,-0.022217847888339123,71.90720529416261
6.25,0.00882166782766244,0.01368823731971238,73.14165571458757
6.26,-0.06543034599302668,-0.01642928981781399,75.31833460462371
6.27,0.01925052210166014,0.006724942464286555,77.94271250904765
6.28,-0.024250657712480958,0.018319083776132488,80.07443417588166
6.29,0.07378771551397005,0.047840729935810684,81.28640598470557
6.3,0.009964555967278627,0.018897939583185003,81.78093543992891
6.31,0.12889635299608804,0.06867953898970117,81.83713196893157
6.32,0.08478801385777585,0.0657852599544386,81.67978168772414
6.33,0.18107633962043956,0.09011422902143984,81.54491001811778
6.34,0.134682224202895,0.07041610641085871,81.46623487751405
6.35,0.1874693701514176,0.06173326930507101,81.3763204311098
6.36,0.06393030530978043,-0.007167596904973771,81.20773084410185
6.37,0.12600341739268456,0.006724942464286555,80.98294472809123
6.38,0.04478692897120931,-0.023375559502444153,80.81622835871669
6.39,0.10686004105411344,0.000936384393761419,80.80498905291616
6.4,0.0006785898328971107,-0.05231834985506983,80.95110002832305
6.41,0.07725209518718161,-0.018744713046024042,81.20773084410185
6.42,0.011143159361257819,-0.049424070819807264,81.54491001811778
6.43,0.10686004105411344,-0.001957894641501149,81.8483712747321
6.44,0.00882166782766244,-0.04132008952107207,82.12748070211195
6.45,0.07668065111737352,-0.029164117572969286,82.39722404132469
6.46,-0.012643200044504064,-0.05984347534675251,82.64448876893637
6.47,0.08710950539137122,-0.01179844336139388,82.77936043854274
6.48,-0.0004642983067190758,-0.04479322436338715,82.83555696754539
6.49,0.07493060365358623,-0.02626983853770672,82.79059974434327
6.5,-0.003357233910122548,-0.03784695467875699,82.63324946313584
6.51,0.059287322242589674,-0.03726809887170448,82.40846334712522
6.52,-0.02192916617888558,-0.05752805211854245,82.1050020905109
6.53,0.06332314598560934,-0.012377299168446394,81.7022602993252
6.54,-0.005678725443717927,-0.043635512749282124,81.27516667890502
6.55,0.10103845459294349,0.024686497653710136,80.928621416722
6.56,-0.019036230575482108,-0.05868576373264748,80.77127113551457
6.57,0.06043021038220586,-0.03147954080117934,80.79374974711563
6.58,-0.026000705176268245,-0.0552126288903324,80.90614280512094
6.59,0.04417976964703821,-0.03437381983644191,81.00542333969229
6.6,-0.02946508484947981,-0.049424070819807264,81.01666264549281
6.61,0.04478692897120931,-0.047108647591597205,80.95110002832305
6.62,-0.03178657638307519,-0.06159706793870571,80.88366419351988
6.63,0.040143945904018555,-0.0424778011351771,80.82746766451721
6.64,-0.04282258998124399,-0.06796448181628335,80.80498905291616
6.65,0.07028762058639547,-0.014113866589603934,80.77127113551457
6.66,-0.030643688243459002,-0.06275477955281074,80.61392085430714
6.67,0.020429125495639334,-0.05752805211854245,80.32169890349333
6.68,-0.04282258998124399,-0.05752805211854245,79.91708389467422
6.69,0.055787227315015106,-0.020481280467181583,79.55929932669066
6.7,-0.008000216977313306,-0.011219587554341366,79.30079529327845
6.71,0.0679661290528001,0.012530525705607353,79.05353056566678
6.72,-0.04571552558464746,-0.05984347534675251,78.71822460928428
6.73,0.0024286372966843962,-0.06275477955281074,78.31360960046517
6.74,-0.05964447478621974,-0.06680677020217833,77.9202338974466
6.75,0.027357884842062464,-0.04132008952107207,77.59616724686461
6.76,-0.028893640779671718,-0.04074123371401956,77.34890251925295
6.77,0.04478692897120931,-0.021060136274234097,77.12411640324233
6.78,-0.017857627181502914,-0.023954415309496664,76.87685167563065
6.79,0.026786440772254373,-0.049424070819807264,76.61834764221844
6.8,0.06043021038220586,0.05594471123454587,76.33923821483859
6.81,0.02621499670244628,-0.03553153145054694,76.02453765242373
6.82,-0.03992965437784052,-0.06217592374575822,75.70983709000886
6.83,0.09118104438875388,-0.027427550151811746,75.44196696842955
6.84,0.0459298171108255,-0.023954415309496664,75.21718085241893
6.85,0.14628968187087188,0.016582516354974947,74.98115543060779
6.86,0.07378771551397005,0.0316327673383403,74.75636931459717
6.87,0.1341107801330869,0.031053911531287788,74.50910458698549
6.88,0.027357884842062464,-0.019323568853076557,74.25247377120671
6.89,0.07203766805018276,-0.008904164326131312,74.02768765519609
6.9,-0.05557293578883707,-0.08996100248427888,73.814140844986
6.91,0.05232284764180354,-0.03205839660823186,73.55563681157379
6.92,-0.046286969654455556,-0.0650702027810208,73.25404877259288
6.93,0.006500176294067061,-0.06854333762333588,72.8943909869759
6.94,-0.06078736292583592,-0.08880329087017384,72.59092973036157
6.95,0.041286834043634736,-0.0297429733800218,72.34366500274989
6.96,-0.24525665171076103,-0.09748612797596155,72.17694863337535
6.97,0.004178684760471682,0.029317344110130247,71.91844459996314
6.98,0.5662653579254574,0.24412392403899977,71.52506889694456
6.99,1.4410033677841962,0.6146767664065867,71.12045388812545
7.0,1.3197500792217913,0.3234441947759898,70.81886584914454
7.01,0.1967553362857991,-0.24223413008068126,70.63903695633606
7.02,-0.27543604164750096,-0.30592529402725344,70.45920806352756
7.03,0.017500474637872857,-0.074331895693861,70.24566125331748
7.04,-0.08457372233159781,-0.0783838863432286,69.92159460273551
7.05,-0.06021591885602783,-0.09748612797596155,69.60689404032064
7.06,-0.11414595294416663,-0.09806498378301406,69.42706514751215
7.07,-0.0004642983067190758,-0.03553153145054694,69.37086861850949
7.08,-0.10314565460036083,-0.08012045376438615,69.24723625470365
7.09,-0.010321708510908684,-0.03437381983644191,68.87821238091956
7.1,-0.11182446141057126,-0.07954159795733363,68.37244361989568
7.11,-0.031215132313267096,-0.047687503398649723,67.96782861107657
7.12,-0.09907411560297817,-0.05058178243391229,67.69995848949725
7.13,-0.03353662384686248,-0.043635512749282124,67.53136890248929
7.14,-0.10082416306676546,-0.026848694344759234,67.34030070388026
7.15,-0.03992965437784052,-0.03263725241528437,67.05931805886699
7.16,-0.10950296987697587,-0.03958352209991453,66.78957471965425
7.17,-0.05035850865183822,-0.03784695467875699,66.83453194285637
7.18,-0.10950296987697587,-0.03263725241528437,67.6437619604946
7.19,-0.030036528919287903,-0.014692722396656447,69.71928709832595
7.2,-0.07818069180061976,-0.0054310294838162305,72.83819445797324
7.21,0.023322061099042807,0.03915789283002298,75.88966598281736
7.22,-0.04514408151483937,0.02989619991718276,77.94271250904765
7.23,0.041286834043634736,0.04899844154991571,78.82874444965616
7.24,0.01403609496466129,0.0571024228486509,79.01981264826519
7.25,0.079573586720777,0.05247157639223079,78.87370167285829
7.26,0.07203766805018276,0.07504695286727882,78.6170708570795
7.27,0.11961038686170652,0.047261874128758166,78.33608821206623
7.28,0.06332314598560934,0.025844209267815166,78.03262695545189
7.29,0.10975297665751692,0.007882654078391583,77.7066870872365
7.3,0.02910793230584975,-0.01642928981781399,77.4050990482556
7.31,0.08828810878535041,-0.0060098852908687436,77.1128770974418
7.32,0.007643064433683248,-0.02453327111654918,76.85437306402959
7.33,0.058108718848610484,-0.03437381983644191,76.70826208862269
7.34,-0.019607674645290202,-0.05058178243391229,76.75321931182481
7.35,0.06507319344939662,-0.01527157820370896,77.01172334523702
7.36,-0.024822101782289052,-0.06564905858807331,77.31518460185134
7.37,0.055787227315015106,-0.029164117572969286,77.60740655266515
7.38,-0.03992965437784052,-0.08880329087017384,77.80784083944128
7.39,0.06971617651658737,-0.006588741097921257,77.96519112064871
7.4,0.0036072406906635887,-0.025112126923601694,78.05510556705296
7.41,0.04246543743761393,-0.05058178243391229,77.9989090380503
7.42,-0.046286969654455556,-0.08475130022080625,77.86403736844393
7.43,0.08885955285515851,0.003830663429023987,77.74040500463809
7.44,0.013464650894853198,-0.021060136274234097,77.55121002366249
7.45,0.050572800178016256,-0.04132008952107207,77.18031293224497
7.46,0.0036072406906635887,-0.03321610822233688,76.60710833641791
7.47,0.05114424424782435,-0.03495267564349442,76.10321279302744
7.48,-0.008571661047121398,-0.05231834985506983,75.91214459441842
7.49,0.051751403571995445,-0.009483020133183825,75.9795804292216
7.5,-0.003357233910122548,-0.03147954080117934,76.19312723943169
7.51,0.0790021426509689,-0.001957894641501149,76.35047752063912
7.52,0.0036072406906635887,-0.021060136274234097,76.3841954380407
7.53,0.062180257845993146,-0.019323568853076557,76.31675960323753
7.54,-0.01728618311169482,-0.07027990504449341,76.35047752063912
7.55,0.04303688150742203,-0.04016237790696704,76.47410988444496
7.56,-0.026000705176268245,-0.05405491727622737,76.57526363664974
7.57,0.04360832557723012,-0.027427550151811746,76.60710833641791
7.58,-0.010321708510908684,-0.03553153145054694,76.56402433084921
7.59,0.06393030530978043,0.008461509885444096,76.36171682643965
7.6,-0.019607674645290202,-0.0384258104858095,76.03577695822426
7.61,0.029679376375657845,-0.05347606146917486,75.70983709000886
7.62,-0.035858115380457856,-0.05579148469738491,75.48505097399826
7.63,0.04478692897120931,-0.022217847888339123,75.36329182782583
7.64,-0.001642901700698268,-0.021638992081286612,75.21718085241893
7.65,0.08421656978796775,0.000936384393761419,74.9137195958046
7.66,0.03375091537304051,-0.04421436855633464,74.49786528118496
7.67,0.17182608874042105,0.0698372506038062,74.09512348999927
7.68,0.08014503079058508,-0.03958352209991453,73.79166223338494
7.69,0.11264591226092038,0.0032518076219714732,73.60059403477592
7.7,0.06450174937958852,0.02526535346076265,73.42076514196742
7.71,0.09639547152575273,0.04320988347939057,73.14165571458757
7.72,-0.04050109844764861,-0.08417244441375374,72.81571584637219
7.73,0.0018571932268763032,-0.06275477955281074,72.52349389555839
7.74,-0.04803701711824284,-0.11079981153816937,72.33242569694936
7.75,0.029679376375657845,-0.04189894532812458,72.23127194474458
7.76,-0.0521085561156255,-0.08301473279964872,72.09827349277164
7.77,0.02621499670244628,-0.05405491727622737,71.86224807096049
7.78,-0.09907411560297817,-0.14265390609685327,71.54754750854562
7.79,-0.06775183752662206,-0.05926461953969999,71.22160764033023
7.8,-0.2876149433852859,-0.10848438830995931,70.96497682455144
7.81,0.3644027402657485,0.11616274033880294,70.80762654334401
7.82,1.1289234751602513,0.4751384665653397,70.71771209693976
7.83,1.6248654972449503,0.3917662051789821,70.52664389833075
7.84,0.42122570995729075,-0.1246923509074297,70.11078958371111
7.85,-0.15996862429190312,-0.23702442781720864,69.60689404032064
7.86,-0.1292535055397181,-0.13860191544748568,69.23599694890312
7.87,-0.16521876668326496,-0.195329784538632,69.12360389089781
7.88,-0.23189914657899685,-0.1993817751879996,69.28095417210525
7.89,-0.12286047500874006,-0.13686534802632813,69.49450098231533
7.9,-0.19825537696904535,-0.1692812732212689,69.61813334612117
7.91,-0.10603859020376431,-0.10964209992406433,69.67432987512383
7.92,-0.16754025821686036,-0.13281335737696054,69.69680848672489
7.93,-0.08807381725917238,-0.09690727216890904,69.6293726519217
7.94,-0.14839688187828923,-0.11022095573111686,69.47202237071427
7.95,-0.05557293578883707,-0.046529791784544694,69.20227903150153
7.96,-0.12171758686912387,-0.05984347534675251,68.78829793451531
7.97,-0.11300306480455044,-0.08590901183491129,68.42864014889832
7.98,-0.11878893601135739,-0.045372080170439665,68.24881125608984
7.99,-0.04396547812086018,-0.01006187594023634,68.19261472708719
8.0,-0.20814850242759797,-0.15886186869432364,68.11393958648347
8.01,-0.12693201400612272,-0.08185702118554368,68.21509333868825
8.02,-0.1843621430218361,-0.09864383959006658,68.97749291549091
8.03,-0.09268108507200012,-0.0384258104858095,70.8750623781472
8.04,-0.06660894938700587,0.027001920881920192,73.3758079187653
8.05,-0.046286969654455556,-0.0170081456248665,75.39700974522742
8.06,-0.09385968846597932,-0.02453327111654918,76.46287057864443
8.07,0.01867907803185205,0.018897939583185003,76.77569792342587
8.08,-0.013821803438483255,0.00267295181491896,76.67454417122109
8.09,0.09928840712915621,0.0698372506038062,76.54154571924815
8.1,0.036072406906635886,0.025844209267815166,76.58462972481685
8.11,0.13003924113570423,0.06636411576149112,76.59586903061738
8.12,-0.012643200044504064,-0.046529791784544694,76.3841954380407
8.13,-0.00453583730410174,-0.06912219343038839,76.00205904082266
8.14,-0.08343083419198162,-0.10616896508174925,75.59744403200355
8.15,0.0030000813664924895,-0.05058178243391229,75.3520525220253
8.16,-0.048608461188050935,-0.06738562600923084,75.41948835682848
8.17,0.07089477991056657,0.017740227969079973,75.73231570160992
8.18,0.03664385097644398,0.009636246670344784,76.05825556982532
8.19,-0.056751539182816266,-0.1252712067144822,76.23808446263381
8.2,-0.10950296987697587,-0.1293231973638498,76.28304168583594
8.21,-0.01207175597469597,-0.08764557925606882,76.33923821483859
8.22,-0.04571552558464746,-0.08475130022080625,76.49658849604602
8.23,0.0012857491570682099,-0.048266359205702235,76.7869372292264
8.24,-0.034108067916670565,-0.049424070819807264,77.0454412626386
8.25,0.07321627144416196,0.028738488303077733,77.13535570904286
8.26,-0.07064477313002553,-0.08590901183491129,77.06791987423966
8.27,0.026786440772254373,-0.01642928981781399,76.87685167563065
8.28,-0.07064477313002553,-0.048845215012754746,76.58462972481685
8.29,-0.04282258998124399,-0.0783838863432286,76.26056307423487
8.3,-0.08807381725917238,-0.06912219343038839,75.94586251182001
8.31,-0.015536135647907536,-0.0552126288903324,75.70983709000886
8.32,-0.09385968846597932,-0.0824358769925962,75.53000819720037
8.33,0.015786142428448578,0.000936384393761419,75.44196696842955
8.34,-0.07414486805760011,-0.049424070819807264,75.48505097399826
8.35,-0.022500610248693674,-0.03205839660823186,75.59744403200355
8.36,-0.04514408151483937,-0.022796703695391638,75.69859778420833
8.37,0.0012857491570682099,-0.017587001431919016,75.78851223061258
8.38,-0.0636802985292394,-0.04595093597749218,75.84470875961523
8.39,0.04767986457461278,0.03684246960181292,75.85594806541576
8.4,-0.08575232572557699,-0.074331895693861,75.72107639580939
8.41,-0.026572149246076336,-0.06333363535986325,75.27337738142158
8.42,-0.05150139679145441,-0.03900466629286202,74.67769417399346
8.43,0.014607539034469385,-0.0170081456248665,74.16255932480246
8.44,0.04417976964703821,0.05247157639223079,73.85909806818813
8.45,0.020429125495639334,-0.01006187594023634,73.60059403477592
8.46,-0.09096675286257584,-0.10095926281827663,73.23157016099182
8.47,0.016929030568064763,-0.018744713046024042,72.69208348256635
8.48,-0.011500311904887877,-0.01006187594023634,72.04207696376898
8.49,0.01925052210166014,-0.030321829187074316,71.26656486353235
8.5,0.026786440772254373,-0.045372080170439665,70.56036181573234
8.51,0.12250332246510999,0.02989619991718276,70.20070403011535
8.52,0.09525258338613654,0.04263102767233806,70.22318264171642
8.53,0.12600341739268456,0.08201024772270464,70.45920806352756
8.54,0.03957250183421046,0.030475055724235273,70.5828404273334
8.55,0.054072895105590824,0.0571024228486509,70.31309708812066
8.56,-0.005107281373909834,0.043788739286443085,69.84291946213179
8.57,-0.06021591885602783,-0.045372080170439665,69.53945820551746
8.58,-0.1512898174816927,-0.09285528151954145,69.50574028811586
8.59,-0.09793122746336198,-0.05231834985506983,69.6630905693233
8.6,-0.13271788521292965,-0.06796448181628335,69.8092015447302
8.61,-0.09385968846597932,-0.04074123371401956,69.7754836273286
8.62,-0.128646346215547,-0.05347606146917486,69.59565473452011
8.63,-0.226684719441998,-0.01990242466012907,69.37086861850949
8.64,-0.13039639367933428,0.0802736803015471,69.21351833730206
8.65,0.5134782119769348,0.3188133483195697,69.08988597349622
8.66,1.2884278011454353,0.6030996502655365,68.9325356922888
8.67,1.4282173067222401,0.3900296377578245,68.65342626490894
8.68,0.08132363418456427,-0.21039706069279301,68.22633264448878
8.69,-0.29457941798607207,-0.23991870685247121,67.88915347047285
8.7,-0.14778972255411812,-0.08706672344901631,67.69995848949725
8.71,-0.1176460478717412,-0.04421436855633464,67.50889029088823
8.72,-0.16754025821686036,-0.07548960730796604,67.26162556327655
8.73,-0.11357450887435853,-0.03784695467875699,66.90196777765956
8.74,-0.1524327056213089,-0.06042233115380502,66.544183209676
8.75,-0.07182337652400472,-0.0008001830273961217,66.2856791762638
8.76,-0.11357450887435853,-0.028585261765916775,66.17328611825849
8.77,-0.06660894938700587,-0.01006187594023634,66.04965375445265
8.78,-0.14432534288090657,-0.06622791439512582,65.89230347324522
8.79,-0.11011012920114698,-0.04305665694222961,65.73495319203778
8.8,-0.13214644114312157,-0.048845215012754746,65.57947612846377
8.81,-0.09907411560297817,-0.025690982730654205,65.35469001245316
8.82,-0.10836008173735968,-0.023375559502444153,65.11866459064201
8.83,-0.09268108507200012,-0.01527157820370896,65.03998945003829
8.84,-0.04282258998124399,0.06173326930507101,65.36592931825369
8.85,-0.012643200044504064,0.06404869253328106,66.40931154006964
8.86,-0.1501112140877135,-0.051739494048017316,68.29376847929196
8.87,-0.04917990525785903,0.03742132540886544,70.71771209693976
8.88,-0.09618117999957469,0.008461509885444096,72.83819445797324
8.89,-0.008571661047121398,0.06115441349801849,74.18503793640352
8.9,-0.038179606914053234,0.05189272058517828,74.89124098420353
8.91,0.06275170191580125,0.10863761484712027,75.22842015821946
8.92,0.04303688150742203,0.0843256709509147,75.29585599302264
8.93,0.1445396344070846,0.15322653716095946,75.16098432341627
8.94,0.0894309969249666,0.09706049870607,74.9137195958046
8.95,0.08771666471554232,0.07853711288038956,74.68893347979399
8.96,0.02507210856283009,0.03742132540886544,74.34238821761095
8.97,0.02507210856283009,0.025844209267815166,73.90405529139025
8.98,-0.03700100352007404,-0.020481280467181583,73.51067958837167
8.99,0.023322061099042807,0.03394819056655036,73.25404877259288
9.0,-0.041072542517456706,-0.0170081456248665,73.20909154939076
9.01,-0.01207175597469597,0.014267093126764894,73.3758079187653
9.02,-0.0526800001854336,-0.022217847888339123,73.5893547289754
9.03,0.01053600003708672,0.027580776688972707,73.69050848118016
9.04,-0.024822101782289052,0.0044095192360765,73.75794431598335
9.05,0.011714603431065913,0.016003660547922433,73.8478587623876
9.06,-0.04282258998124399,-0.03900466629286202,74.05016626679715
9.07,-0.023679213642672864,-0.03263725241528437,74.33114891181042
9.08,-0.028893640779671718,-0.03668924306465196,74.4753866695839
9.09,0.03142942383944513,0.009636246670344784,74.46414736378337
9.1,-0.039322495053669415,-0.06217592374575822,74.39671152898018
9.11,0.04071538997382665,0.01195166989855484,74.24123446540618
9.12,-0.04396547812086018,-0.06100118696085753,73.93777320879184
9.13,0.011714603431065913,-0.01527157820370896,73.61183334057645
9.14,-0.009750264441100592,-0.04016237790696704,73.35332930716424
9.15,0.041286834043634736,0.003830663429023987,73.11917710298651
9.16,-0.005107281373909834,-0.045372080170439665,72.95058751597855
9.17,0.04189399336780584,0.000936384393761419,72.8606730695743
9.18,-0.008571661047121398,-0.043635512749282124,72.87191237537483
9.19,0.03782245437042318,0.004988375043129014,72.8943909869759
9.2,0.00010714576308901749,-0.022217847888339123,72.96182682177908
9.21,0.08421656978796775,0.04899844154991571,73.06298057398386
9.22,-0.028893640779671718,-0.07259532827270347,73.11917710298651
9.23,-0.00453583730410174,-0.052897205662122346,73.08545918558492
9.24,-0.023679213642672864,-0.05694919631148994,73.09669849138545
9.25,0.04825130864442088,0.010793958284449812,73.10793779718598
9.26,0.02446494923865899,-0.026848694344759234,73.05174126818333
9.27,0.1114673088669412,0.026423065074867677,73.02926265658228
9.28,0.10393139019634696,0.044946450900548114,72.98430543338014
9.29,0.14282530219766032,0.07736237609548888,72.82695515217272
9.3,0.07725209518718161,0.0443675950934956,72.55721181295998
9.31,0.09003815624913769,0.05420814381338833,72.2425112505451
9.32,0.04825130864442088,0.03452704637360287,71.94092321156421
9.33,0.07146622398037467,0.06694297156854363,71.6487012607504
9.34,-0.0747163121274082,-0.09285528151954145,71.37895792153766
9.35,-0.09732406813919088,-0.1032746860464867,71.13169319392598
9.36,-0.10139560713657356,-0.10095926281827663,70.9087802955488
9.37,-0.05614437985864516,-0.051160638240964805,70.65027626213659
9.38,-0.09732406813919088,-0.09401299313364647,70.41425084032544
9.39,-0.043394034051052084,-0.03321610822233688,70.18946472431482
9.4,-0.2284347669057853,-0.03321610822233688,69.96655182593763
9.41,-0.04917990525785903,0.04899844154991571,69.68556918092436
9.42,0.6410888158159547,0.33096932026767245,69.35962931270896
9.43,1.543077564753667,0.6876296232659992,69.01121083289252
9.44,1.3812517472348875,0.24238735661784222,68.81077654611637
9.45,0.10221705798692268,-0.24281298588773378,68.78829793451531
9.46,-0.23250630590316795,-0.2555478136428891,68.75458001711372
9.47,-0.061358806995644014,-0.06680677020217833,68.63094765330789
9.48,-0.07878785112479086,-0.05694919631148994,68.37244361989568
9.49,-0.12403907840271924,-0.08764557925606882,68.06898236328135
9.5,-0.1280749021457389,-0.08590901183491129,67.92287138787445
9.51,-0.07878785112479086,-0.03900466629286202,67.93411069367498
9.52,-0.10778863766755159,-0.06738562600923084,67.8329569414702
9.53,-0.07760924773081167,-0.047108647591597205,67.55384751409035
9.54,-0.10371709867016893,-0.05231834985506983,67.10427528206912
9.55,-0.09153819693238394,-0.0337949640293894,66.6565762676813
9.56,-0.10371709867016893,-0.05058178243391229,66.37559362266803
9.57,-0.053822888325049785,-0.0054310294838162305,66.22948264726114
9.58,-0.10893152580716778,-0.051739494048017316,66.06089306025318
9.59,-0.07125193245419663,-0.004852173676763717,65.84734625004309
9.6,-0.07760924773081167,-0.012377299168446394,65.64503874563354
9.61,-0.07296626466362091,0.00035752858670890544,65.83610694424256
9.62,-0.04571552558464746,0.022949930232552596,66.77833541385372
9.63,-0.038179606914053234,0.040315604444128,68.66466557070947
9.64,-0.07878785112479086,-0.021060136274234097,71.08860918835728
9.65,-0.038179606914053234,0.018897939583185003,73.25404877259288
9.66,-0.021357722109077486,0.024686497653710136,74.59901903338974
9.67,0.040143945904018555,0.0738892412531738,75.21718085241893
9.68,0.0459298171108255,0.040315604444128,75.37453113362636
9.69,0.10743148512392153,0.08316795933680968,75.38577043942689
9.7,0.09293109185254117,0.04320988347939057,75.43072766262901
9.71,0.15150410900787073,0.08953537321438731,75.39700974522742
9.72,0.14975406154408344,0.07678352028843637,75.10478779441362
9.73,0.09696691559556082,0.03394819056655036,74.59901903338974
9.74,0.019821966171468235,-0.03437381983644191,74.10636279579981
9.75,0.04825130864442088,-0.003115606255606176,73.75794431598335
9.76,0.0012857491570682099,-0.051160638240964805,73.63431195217751
9.77,0.02621499670244628,-0.01353501078255142,73.56687611737432
9.78,0.004750128830279776,-0.05231834985506983,73.46572236516955
9.79,0.05521578324520701,0.01195166989855484,73.3758079187653
9.8,0.022750617029234713,-0.03553153145054694,73.43200444776795
9.81,-0.01207175597469597,-0.0650702027810208,73.61183334057645
9.82,-0.006285884767889026,-0.07143761665859844,73.814140844986
9.83,0.038393898440231264,-0.019323568853076557,73.97149112619343
9.84,0.029679376375657845,-0.0337949640293894,74.12884140740087
9.85,0.04189399336780584,-0.0060098852908687436,74.24123446540618
9.86,0.004750128830279776,-0.05926461953969999,74.20751654800458
9.87,0.03550096283682779,-0.021060136274234097,74.07264487839821
9.88,0.016929030568064763,-0.06100118696085753,73.87033737398866
9.89,0.06275170191580125,0.014267093126764894,73.5893547289754
9.9,0.02100056956544743,-0.04479322436338715,73.24280946679235
9.91,0.050572800178016256,-0.0060098852908687436,72.90563029277644
9.92,0.026786440772254373,-0.04132008952107207,72.64712625936423
9.93,0.026786440772254373,-0.01990242466012907,72.53473320135892
9.94,0.03782245437042318,-0.0297429733800218,72.59092973036157
9.95,0.03896534251003936,-0.018744713046024042,72.75951931736952
9.96,0.03142942383944513,-0.03321610822233688,72.82695515217272
9.97,0.04360832557723012,-0.0170081456248665,72.75951931736952
9.98,0.04478692897120931,-0.023954415309496664,72.68084417676582
9.99,0.13003924113570423,0.031053911531287788,72.7145620941674
