time_s,ECG,NIBP
0.0,-0.02760625408800617,73.05782825755932
0.01,-0.07524228243544899,72.05061869838168
0.02,-0.1023695636607295,71.50157237123926
0.03,-0.11930778580620963,70.8297870187459
0.04,-0.1231395687080149,69.82257745956827
0.05,-0.12022218854414043,69.578973287116
0.06,-0.1225299668827277,69.0599090119677
0.07,-0.12327019767057644,68.84628689150956
0.08,-0.1773070451835349,68.14451948702208
0.09,-0.4295515718898752,67.991798409677
0.1,-0.41944959878511584,67.77817628921886
0.11,0.6510982923942528,67.62545521187378
0.12,1.7362766273805141,67.35093204830258
0.13,0.9751887485094419,67.25911201407058
0.14,-0.4582028576783737,67.04548989361244
0.15,-0.594492408617584,66.86278676427324
0.16,-0.1556226373983187,66.68008363493404
0.17,-0.028825457738580574,66.4664615144759
0.18,-0.044109046358281154,65.8555772050956
0.19,-0.055691481038738,65.61197303264333
0.2,-0.03966766163118868,65.00108872326304
0.21,-0.023643842223639352,65.18472879172705
0.22,-0.013890213019044114,64.63474552545982
0.23,-0.0045720136896540186,64.8792866370369
0.24,0.005181615514941221,64.63474552545982
0.25,0.013716041068962057,64.42112340500168
0.26,0.02791105500064977,64.2684023276566
0.27,0.04868106004793517,64.14660024143048
0.28,0.07293450409686172,63.50573388005605
0.29,0.1008455590975115,63.689373948520064
0.3,0.13062896256154338,63.10940863025871
0.31,0.1646360358150652,62.8348854666875
0.32,0.20826610931062067,62.71214644133656
0.33,0.26016935043507394,62.8348854666875
0.34,0.3196926143756172,62.254920148426145
0.35,0.38666172918216846,62.1321811230752
0.36,0.4557644503772249,61.85765795950399
0.37,0.5195549270947786,61.64403583904585
0.38,0.565797579841565,61.43041371858771
0.39,0.5684101590927958,61.735855873277856
0.4,0.5004830985607932,61.43041371858771
0.41,0.3713781405624679,62.041298027968004
0.42,0.2230707250675956,63.475751828061924
0.43,0.09779754997107548,68.87720588262852
0.44,0.012192036505744049,76.5067011760085
0.45,-0.035095647941534656,85.60063232147655
0.46,-0.05921846302789967,92.58926125348214
0.47,-0.07202010135893092,98.84520378988128
0.48,-0.07524228243544899,102.59858192389581
0.49,-0.07445850866007973,104.94842524893535
0.5,-0.07371827787223098,104.61300104225108
0.51,-0.07188947239636938,104.91844319694123
0.52,-0.06910272119505645,104.21667579245374
0.53,-0.0680576894945641,103.66669252618651
0.54,-0.06849311936976925,102.65948296700887
0.55,-0.06727391571919485,100.43237866732028
0.56,-0.06666431389390765,95.85449410346732
0.57,-0.06422590659275883,91.6738717285365
0.58,-0.060132865765830476,86.57692288953525
0.59,-0.057215485601956,83.25078899643701
0.6,-0.0563010828640252,80.07643924155902
0.61,-0.0566058837766688,79.16104971661339
0.62,-0.05891366211525607,78.55110234635791
0.63,-0.06318087489226648,78.12385810544163
0.64,-0.06531448128077169,76.96392746891891
0.65,-0.06514030933068964,76.4148811417765
0.66,-0.06318087489226648,76.1403579782053
0.67,-0.061787499291610024,75.49949161683088
0.68,-0.06287607397962289,74.58410209188524
0.69,-0.06379047671755368,73.54597354158867
0.7,-0.06287607397962289,72.29515980995876
0.71,-0.062397101116897224,70.49436281206162
0.72,-0.06165687032904848,67.50365312564766
0.73,-0.06318087489226648,66.89370575539218
0.74,-0.0650096803681281,66.31374043713082
0.75,-0.06757871663183844,66.4664615144759
0.76,-0.06148269837896642,66.6491646438151
0.77,-0.042585041795063144,66.86278676427324
0.78,-0.0038317829018052725,66.77096673004122
0.79,0.055256051163532854,66.89370575539218
0.8,0.06270190202954083,67.41183309141564
0.81,0.009013398416746494,70.49436281206162
0.82,-0.03831782901805273,73.72961361005268
0.83,-0.06788351754448205,74.06503781673696
0.84,-0.09065650001771111,73.88139774827295
0.85,-0.1026743645733731,73.97321778250495
0.86,-0.10637551851261683,79.71103298288062
0.87,-0.10711574930046558,79.16104971661339
0.88,-0.10602717461245272,78.85654450104806
0.89,-0.11747898033034802,78.36746227789389
0.9,-0.27479979424196677,76.56760221912158
0.91,-0.5119349042786885,75.16313047102179
0.92,0.004441384727092475,73.36327041224946
0.93,1.3797031025750213,72.35606085307182
0.94,1.7092799751177952,71.37977028501314
0.95,0.26151918304820987,70.86070600986484
0.96,-0.6732181300546741,69.88441544180615
0.97,-0.33737106730894606,69.60895533911012
0.98,-0.034790847028891056,68.9680889777357
0.99,-0.022903611435790606,68.84628689150956
1.0,-0.052774100874863526,68.6935658141645
1.01,-0.03862262993069633,68.84628689150956
1.02,-0.0207700050472854,68.17543847814102
1.03,-0.011582434680456848,67.991798409677
1.04,0.0,67.77817628921886
1.05,0.011887235593100448,68.02271740079595
1.06,0.022294009610503405,67.5345721167666
1.07,0.03309267051559099,67.65637420299274
1.08,0.0448492771461299,67.07640888473138
1.09,0.06087309655367922,67.29003100518952
1.1,0.08133830068832101,66.6491646438151
1.11,0.10498214291196037,66.49644356647002
1.12,0.1336769716879794,66.25283939401776
1.13,0.17164645680586801,66.06919932555374
1.14,0.22050168880388524,65.9473972393276
1.15,0.2793718079316208,65.70285612775052
1.16,0.34760366937626697,65.09290875749504
1.17,0.4182303951345414,65.00108872326304
1.18,0.48445927915324394,64.7874666028049
1.19,0.5381913257535588,64.57384448234676
1.2,0.5597015615886929,64.33024030989449
1.21,0.5186405243568478,64.8792866370369
1.22,0.40207594676443054,65.0619897663761
1.23,0.24732416911652214,66.86278676427324
1.24,0.11399554132870686,72.2342587668457
1.25,0.024863045874213757,80.19917826690997
1.26,-0.02943505956386778,88.62226099900947
1.27,-0.057389657552038065,96.43445942172866
1.28,-0.06788351754448205,101.83591347629525
1.29,-0.07219427330901299,105.65019265342285
1.3,-0.07310867604694378,106.99376335840957
1.31,-0.07432787969751818,107.45098965131997
1.32,-0.0755470833480926,106.96284436729063
1.33,-0.07524228243544899,106.38287904902927
1.34,-0.07432787969751818,105.83383272188686
1.35,-0.07384890683479253,104.43029791291188
1.36,-0.07354410592214893,104.30755888756093
1.37,-0.07262970318421813,102.08045458787234
1.38,-0.07049609679571292,97.92981426493566
1.39,-0.06757871663183844,93.59647081265977
1.4,-0.06453070750540243,89.4458304897231
1.41,-0.06270190202954083,86.42420181219018
1.42,-0.06148269837896642,83.40351007378209
1.43,-0.06074246759111768,82.73172472128871
1.44,-0.06087309655367922,82.48812054883645
1.45,-0.06104726850376128,81.93813728256922
1.46,-0.06331150385482803,80.90094567139747
1.47,-0.06514030933068964,80.35189934425505
1.48,-0.06605471206862044,79.3446897850774
1.49,-0.0674480876692769,78.2765791827867
1.5,-0.06940752210770006,76.59758427111571
1.51,-0.07049609679571292,75.19404946214073
1.52,-0.06879792028241286,72.99692721444625
1.53,-0.0662288840187025,71.6233744574654
1.54,-0.06818831845712565,70.28074069160348
1.55,-0.07032192484563085,70.00621752803228
1.56,-0.07188947239636938,69.48715325288399
1.57,-0.07323930500950533,69.670793321348
1.58,-0.07415370774743613,69.36535116665786
1.59,-0.0755470833480926,70.06711857114534
1.6,-0.07310867604694378,70.70798493251976
1.61,-0.06104726850376128,72.84420613710118
1.62,-0.043499444532993946,75.77401478040208
1.63,0.005050986552379678,75.95671790974129
1.64,0.056170453901463656,75.77401478040208
1.65,0.034486046116247455,76.04853794397329
1.66,-0.026691851350075367,75.77401478040208
1.67,-0.0665336849313461,75.98763690086022
1.68,-0.09065650001771111,81.72451516211108
1.69,-0.10637551851261683,81.48091098965881
1.7,-0.10955415660161438,80.53460247359425
1.71,-0.11003312946434005,79.49741086242248
1.72,-0.1122973648154068,77.84933494187042
1.73,-0.1119925639027632,76.32306110754449
1.74,-0.15031039292081594,75.37675259147993
1.75,-0.38770676088266076,74.33956098030816
1.76,-0.48750728827967993,73.45415350735665
1.77,0.4687402606583382,72.81328714598223
1.78,1.7872654657670366,72.35606085307182
1.79,1.369949473370426,72.02063664638756
1.8,-0.18706067438813012,71.47065338012032
1.81,-0.599064422307238,71.31793230277525
1.82,-0.1531842300971699,70.67706594140083
1.83,-0.005791217340228424,70.9216070529779
1.84,-0.06087309655367922,69.8534964506872
1.85,-0.07127987057108218,69.97529853691334
1.86,-0.04837625913529157,69.42625220977092
1.87,-0.03278786960294739,69.21263008931278
1.88,-0.02242463857306495,69.0599090119677
1.89,-0.015544846544823663,68.84628689150956
1.9,-0.008229624641377234,68.6935658141645
1.91,0.0027432082137924113,68.41904265059328
1.92,0.015849647457467263,67.86999632345088
1.93,0.032657240640385846,67.65637420299274
1.94,0.05142426826172758,67.50365312564766
1.95,0.07354410592214893,67.25911201407058
1.96,0.10193413378552436,66.6491646438151
1.97,0.13655080886433335,66.4664615144759
1.98,0.17900522169683497,66.25283939401776
1.99,0.2308649198337677,66.06919932555374
2.0,0.2922169892501726,65.91647824820866
2.01,0.36057947965738024,65.70285612775052
2.02,0.43120620541565474,65.45925195529826
2.03,0.49573691292105715,65.21471084372118
2.04,0.5435035702310616,65.12289080948916
2.05,0.5489899866586464,65.3365129299473
2.06,0.48310944654010796,66.00829828244068
2.07,0.34973727576477215,68.7853858483965
2.08,0.19973168375659983,68.6935658141645
2.09,0.08055452691295176,68.6935658141645
2.1,0.0045720136896540186,75.3467705394858
2.11,-0.04027726345647588,84.04437643515651
2.12,-0.06470487945548449,92.22291805567892
2.13,-0.07188947239636938,99.18062799656555
2.14,-0.07001712393298726,108.64090233983681
2.15,-0.06788351754448205,108.82454240830083
2.16,-0.06775288858192051,108.15275705580747
2.17,-0.06714328675663331,107.93913493534933
2.18,-0.06514030933068964,107.02374541040369
2.19,-0.06409527763019729,106.44378009214233
2.2,-0.0665336849313461,103.78943155153746
2.21,-0.06836249040720771,99.63879122860078
2.22,-0.0674480876692769,94.57276138071846
2.23,-0.06574991115597684,91.18572644450715
2.24,-0.06348567580491009,88.56042301677158
2.25,-0.062092300204253624,87.91955665539716
2.26,-0.06348567580491009,87.37051032825475
2.27,-0.06714328675663331,87.27869029402274
2.28,-0.06849311936976925,86.60784188065419
2.29,-0.07049609679571292,86.36330076907711
2.3,-0.07219427330901299,85.38701020101841
2.31,-0.07127987057108218,84.65432380541199
2.32,-0.07171530044628732,83.43349212577621
2.33,-0.07371827787223098,82.27449842837831
2.34,-0.07402307878487459,80.50462042160012
2.35,-0.07341347695958739,78.76472446681605
2.36,-0.07402307878487459,76.47578218488957
2.37,-0.07524228243544899,75.10222942790871
2.38,-0.076766286998667,73.72961361005268
2.39,-0.07964012417502095,73.5768925327076
2.4,-0.08011909703774661,73.3023693691364
2.41,-0.07781131869915935,73.60687458470173
2.42,-0.07598251322329774,73.42417145536253
2.43,-0.0773758888239542,73.5768925327076
2.44,-0.08055452691295176,73.33235142113053
2.45,-0.07994492508766456,73.91231673939188
2.46,-0.07646148608602339,74.21775889408202
2.47,-0.07628731413594134,76.32306110754449
2.48,-0.079814296125103,78.52018335523897
2.49,-0.07062672575827446,78.82562550992911
2.5,-0.05434164842560205,78.55110234635791
2.51,-0.018157425796054533,84.71522484852505
2.52,0.04393487440819909,83.86073636669249
2.53,0.053427245687671245,83.12898691021087
2.54,-0.0038317829018052725,81.69453311011695
2.55,-0.053732046600314845,80.62642250782625
2.56,-0.07842092052444655,79.3446897850774
2.57,-0.09505434175728307,78.24566019166777
2.58,-0.10162933287288076,77.42209070095414
2.59,-0.1032839663986603,76.35398009866344
2.6,-0.10572237369980912,75.28586949637273
2.61,-0.10559174473724757,75.07224737591459
2.62,-0.1150405730291992,74.6450031349983
2.63,-0.2619981559109355,74.2786599371951
2.64,-0.513154107929263,73.72961361005268
2.65,-0.04990026369850958,73.5768925327076
2.66,1.3510082737990023,73.51599148959454
2.67,1.789399072155542,73.5768925327076
2.68,0.37795313167806555,73.08874724867826
2.69,-0.6225776355683158,72.75238610286917
2.7,-0.32134724790139674,72.2342587668457
2.71,-0.019071828533985334,72.32514186195289
2.72,-0.03801302810540912,71.80701452592942
2.73,-0.07506811048536693,71.6233744574654
2.74,-0.0550818792134508,71.166148164555
2.75,-0.03801302810540912,71.19613021654912
2.76,-0.02760625408800617,70.31165968272244
2.77,-0.018026796833492988,70.34164173471656
2.78,-0.0105374029799645,69.91439749380028
2.79,0.00030480091264360124,69.63987433022906
2.8,0.014325642894249258,69.48715325288399
2.81,0.03082843516452424,69.15172904619972
2.82,0.046852254572073565,68.63266477105142
2.83,0.06666431389390765,68.41904265059328
2.84,0.09261593445613427,68.2363395212541
2.85,0.1252731750965201,67.96181635768288
2.86,0.16420060593986005,67.86999632345088
2.87,0.21192372026234388,67.62545521187378
2.88,0.26748457233852035,67.04548989361244
2.89,0.3332344834944972,67.16822891896338
2.9,0.40695276136672814,66.8318677731543
2.91,0.47849388986293345,66.49644356647002
2.92,0.5377123528908331,66.28282144601188
2.93,0.5621399688898417,66.55734460958308
2.94,0.5258251172977326,67.13730992784444
2.95,0.41627096069611824,68.29724056436716
2.96,0.26717977142587673,73.42417145536253
2.97,0.13380760065054095,81.48091098965881
2.98,0.04149646710705028,89.8121736875263
2.99,-0.01785262488341093,97.65529110136444
3.0,-0.05094529539900192,103.1176461990441
3.01,-0.06574991115597684,106.65740221260049
3.02,-0.07232490227157452,108.61092028784269
3.03,-0.07585188426073619,109.19088560610405
3.04,-0.0755470833480926,109.0681465807531
3.05,-0.07384890683479253,108.82454240830083
3.06,-0.07158467148372577,107.72551281489119
3.07,-0.07127987057108218,107.17646648774877
3.08,-0.07062672575827446,105.80291373076791
3.09,-0.07188947239636938,102.87310508746701
3.1,-0.07097506965843857,97.8988952738167
3.11,-0.06988649497042572,93.9009760282251
3.12,-0.07219427330901299,90.33123796267459
3.13,-0.07371827787223098,89.17130732615188
3.14,-0.07445850866007973,88.1331787758553
3.15,-0.07432787969751818,87.98139463763505
3.16,-0.07384890683479253,87.34052827626063
3.17,-0.0761566851733798,87.0650681735646
3.18,-0.08164310160096462,86.60784188065419
3.19,-0.08377670798946983,86.30239972596404
3.2,-0.08116412873823896,85.05158599433415
3.21,-0.07950949521245941,84.10527747826957
3.22,-0.0779854906492414,82.15175940302736
3.23,-0.07842092052444655,79.86281712110087
3.24,-0.0792046942998158,77.51297379606133
3.25,-0.08055452691295176,75.92673585774716
3.26,-0.08512654060260577,74.94950835056365
3.27,-0.08804392076648024,74.79772421234338
3.28,-0.08682471711590584,74.49228205765324
3.29,-0.08726014699111098,75.07224737591459
3.3,-0.08882769454184951,75.01134633280152
3.31,-0.08882769454184951,75.10222942790871
3.32,-0.08987272624234185,75.46857262571193
3.33,-0.09065650001771111,76.32306110754449
3.34,-0.08882769454184951,78.24566019166777
3.35,-0.09200633263084707,80.68732355093931
3.36,-0.09444473993199587,80.56552146471319
3.37,-0.09614291644529593,80.56552146471319
3.38,-0.09858132374644474,80.50462042160012
3.39,-0.09583811553265233,85.63155131259549
3.4,-0.09657834632050108,84.62434175341787
3.41,-0.10054075818486789,83.52531216000821
3.42,-0.09993115635958069,82.18267839414631
3.43,-0.09810235088371909,81.02274775762359
3.44,-0.09840715179636268,79.74101503487475
3.45,-0.10041012922230635,78.76472446681605
3.46,-0.10132453196023715,78.24566019166777
3.47,-0.09840715179636268,77.57481177829922
3.48,-0.09614291644529593,77.05574750315093
3.49,-0.09858132374644474,76.35398009866344
3.5,-0.10162933287288076,75.74309578928315
3.51,-0.10254373561081156,75.529473668825
3.52,-0.1023695636607295,75.3467705394858
3.53,-0.10071493013494995,75.13314841902766
3.54,-0.10419836913659111,74.52226410964737
3.55,-0.10681094838782197,74.30864198918923
3.56,-0.10101973104759356,74.09501986873109
3.57,-0.10010532830966275,73.88139774827295
3.58,-0.10284853652345516,73.45415350735665
3.59,-0.10406774017402956,73.21054933490439
3.6,-0.10467734199931678,72.96600822332731
3.61,-0.1008455590975115,72.81328714598223
3.62,-0.09949572648437555,72.2342587668457
3.63,-0.1002359572722243,71.95879866414967
3.64,-0.09810235088371909,71.53155442323339
3.65,-0.09827652283380114,71.68427550057847
3.66,-0.08834872167912385,71.56247341435233
3.67,-0.07842092052444655,71.6233744574654
3.68,-0.05843468925253041,71.166148164555
3.69,0.005486416427584823,70.89068806185897
3.7,0.04180126801969388,70.34164173471656
3.71,-0.0006096018252872025,70.3725607258355
3.72,-0.05965389290310481,69.39533321865198
3.73,-0.09474954084463948,69.578973287116
3.74,-0.11094753220227085,68.99900796885464
3.75,-0.11717417941770442,68.81630483951544
3.76,-0.12327019767057644,68.63266477105142
3.77,-0.12605694887188937,68.35814160748022
3.78,-0.1258827769218073,68.29724056436716
3.79,-0.1568418410488931,67.96181635768288
3.8,-0.36558692322223946,67.4427520825346
3.81,-0.5288731264241686,67.25911201407058
3.82,0.25011092031783505,67.04548989361244
3.83,1.5568359758084742,67.22912996207646
3.84,1.3775694961865161,66.95460679850524
3.85,-0.1126021657280504,66.86278676427324
3.86,-0.6529270978701144,66.31374043713082
3.87,-0.23269372530962928,66.1301003686668
3.88,-0.03709862536747832,65.88649619621454
3.89,-0.06422590659275883,65.70285612775052
3.9,-0.08451693877731857,65.55013505040544
3.91,-0.0656192821934153,65.21471084372118
3.92,-0.05172906917437118,65.52015299841132
3.93,-0.04271567075762469,65.3365129299473
3.94,-0.03126386503972938,64.69564656857288
3.95,-0.0207700050472854,64.8792866370369
3.96,-0.010842203892608102,64.69564656857288
3.97,0.0016981765133000642,64.90926868903102
3.98,0.016633421232836523,64.7874666028049
3.99,0.03587942171690392,64.42112340500168
4.0,0.05904429107781761,64.39114135300755
4.01,0.08804392076648024,64.0856991983174
4.02,0.11839338306827882,63.963897112091274
4.03,0.15518720752311355,64.02479815520434
4.04,0.20369409562096666,63.93297812097233
4.05,0.2595597486097867,63.658454957401126
4.06,0.3212166189388352,63.170309673371776
4.07,0.38618275631944277,63.231210716484846
4.08,0.4510618077250093,63.07848963913977
4.09,0.5064484878511037,63.2002917253659
4.1,0.5351433166271228,63.13939068225284
4.11,0.5175954926563554,64.02479815520434
4.12,0.4353427892301036,65.8555772050956
4.13,0.3013610166294806,66.1301003686668
4.14,0.16219762851391636,65.97737929132172
4.15,0.0559962819513816,72.47786293929796
4.16,-0.011582434680456848,81.23636987808173
4.17,-0.053427245687671245,90.75848220359087
4.18,-0.07371827787223098,97.92981426493566
4.19,-0.07964012417502095,109.15996661498511
4.2,-0.08225270342625182,108.58000129672375
4.21,-0.08347190707682622,108.00003597846239
4.22,-0.07829029156188501,107.02374541040369
4.23,-0.07232490227157452,106.01653585122605
4.24,-0.07141049953364371,103.45307040572837
4.25,-0.07049609679571292,103.63671047419238
4.26,-0.06775288858192051,103.4839893968473
4.27,-0.06775288858192051,98.90610483299434
4.28,-0.06958169405778211,94.29823821714726
4.29,-0.07080089770835651,90.02579580798444
4.3,-0.07032192484563085,86.30239972596404
4.31,-0.07097506965843857,84.80704488275705
4.32,-0.07188947239636938,83.79983532357942
4.33,-0.07171530044628732,83.52531216000821
4.34,-0.07463268061016179,83.46441111689515
4.35,-0.07811611961180295,83.12898691021087
4.36,-0.08103349977567742,82.15175940302736
4.37,-0.08194790251360821,81.78635314434896
4.38,-0.08116412873823896,80.56552146471319
4.39,-0.08055452691295176,79.52739291441661
4.4,-0.08238333238881336,76.23124107331249
4.41,-0.08512654060260577,74.30864198918923
4.42,-0.08756494790375459,73.05782825755932
4.43,-0.08865352259176745,72.4169618961849
4.44,-0.08773911985383664,71.8978976210366
4.45,-0.08786974881639818,71.95879866414967
4.46,-0.09017752715498545,71.86791556904248
4.47,-0.09078712898027265,71.98971765526862
4.48,-0.09078712898027265,72.2342587668457
4.49,-0.09170153171820346,72.7833050939881
4.5,-0.09248530549357271,74.5531831007663
4.51,-0.09261593445613427,77.87931699386455
4.52,-0.09200633263084707,77.78843389875736
4.53,-0.09139673080555986,77.91023598498349
4.54,-0.09261593445613427,85.47883023525043
4.55,-0.09309490731885992,85.17338808056027
4.56,-0.09170153171820346,84.59342276229891
4.57,-0.09187570366828551,84.41071963295971
4.58,-0.09279010640621632,82.9762658328658
4.59,-0.09279010640621632,81.44999199853987
4.6,-0.09157090275564192,79.74101503487475
4.61,-0.09139673080555986,78.70382342370299
4.62,-0.09109192989291626,78.58108439835203
4.63,-0.09109192989291626,77.57481177829922
4.64,-0.08956792532969825,76.29307905555036
4.65,-0.08665054516582378,76.29307905555036
4.66,-0.08347190707682622,76.26216006443143
4.67,-0.08255750433889542,75.86583481463408
4.68,-0.08268813330145697,75.37675259147993
4.69,-0.07872572143709015,74.67498518699243
4.7,-0.07445850866007973,74.5531831007663
4.71,-0.07219427330901299,74.24774094607615
4.72,-0.06104726850376128,73.91231673939188
4.73,-0.05094529539900192,73.51599148959454
4.74,-0.015719018494905722,73.05782825755932
4.75,0.04820208718520951,72.7833050939881
4.76,0.056170453901463656,72.38604290506595
4.77,0.00243840730114881,72.5087819304169
4.78,-0.0454588789714171,71.80701452592942
4.79,-0.07310867604694378,71.86791556904248
4.8,-0.0891324954544931,71.47065338012032
4.81,-0.09309490731885992,71.34885129389419
4.82,-0.09413993901935228,71.13522917343604
4.83,-0.09627354540785747,70.89068806185897
4.84,-0.09657834632050108,70.6470838894067
4.85,-0.13946818902820782,70.3725607258355
4.86,-0.3816107426297888,69.94531648491922
4.87,-0.48128064106424634,69.60895533911012
4.88,0.47422667708592303,69.48715325288399
4.89,1.7873960947295982,69.21263008931278
4.9,1.3955527500324885,68.6026827190573
4.91,-0.13624600795168976,68.38906059859916
4.92,-0.5570889823374621,67.77817628921886
4.93,-0.12174619310735844,67.5345721167666
4.94,0.007489393853528488,67.4427520825346
4.95,-0.055256051163532854,67.16822891896338
4.96,-0.05843468925253041,66.77096673004122
4.97,-0.036314851592109065,66.8318677731543
4.98,-0.027170824212801026,66.28282144601188
4.99,-0.018767027621341734,65.9473972393276
5.0,-0.009448828291951638,65.91647824820866
5.01,0.00030480091264360124,66.1301003686668
5.02,0.013890213019044114,65.52015299841132
5.03,0.03004466138915498,65.64195508463746
5.04,0.0460684807967043,65.12289080948916
5.05,0.06318087489226648,65.21471084372118
5.06,0.08347190707682622,64.66566451657876
5.07,0.10772535112575278,64.90926868903102
5.08,0.13716041068962057,64.72656555969184
5.09,0.17408486410701682,64.81838559392384
5.1,0.222765924154952,64.23842027566248
5.11,0.28411799357135686,64.05478020719846
5.12,0.35291591385376975,63.963897112091274
5.13,0.42280240882419545,64.02479815520434
5.14,0.48872649193025436,63.87207707785927
5.15,0.5416747647551999,63.9938791640854
5.16,0.5625753987650468,63.963897112091274
5.17,0.5216885334832838,64.7874666028049
5.18,0.4084767659299462,67.83907733233193
5.19,0.25908077574706107,75.07224737591459
5.2,0.1264923787470945,83.86073636669249
5.21,0.03753405524268347,92.467459167256
5.22,-0.01737365202068527,98.72340170365514
5.23,-0.05020506461115318,103.91123363776359
5.24,-0.06331150385482803,106.62742016060636
5.25,-0.06727391571919485,108.36637917626561
5.26,-0.07001712393298726,108.24457709003947
5.27,-0.07127987057108218,107.87823389223625
5.28,-0.07232490227157452,107.9091528833552
5.29,-0.07188947239636938,107.51189069443305
5.3,-0.06971232302034365,106.62742016060636
5.31,-0.0680576894945641,105.98655379923193
5.32,-0.06958169405778211,104.33847787867987
5.33,-0.06940752210770006,101.13414607180776
5.34,-0.0665336849313461,96.70898258529988
5.35,-0.06574991115597684,92.80288337394028
5.36,-0.06592408310605889,89.4458304897231
5.37,-0.06300670294218443,88.71314409411666
5.38,-0.060132865765830476,87.82867356028997
5.39,-0.060263494728392014,87.91955665539716
5.4,-0.06135206941640488,86.63782393264832
5.41,-0.062397101116897224,85.96697551927977
5.42,-0.06300670294218443,85.47883023525043
5.43,-0.06331150385482803,84.68524279653093
5.44,-0.06470487945548449,83.83075431469837
5.45,-0.06635951298126404,82.64084162618153
5.46,-0.06666431389390765,80.9318646625164
5.47,-0.06635951298126404,79.10014867350033
5.48,-0.06392110568011523,77.05574750315093
5.49,-0.06257127306697928,75.65221269417594
5.5,-0.06409527763019729,74.52226410964737
5.51,-0.06483550841804603,74.2786599371951
5.52,-0.06514030933068964,74.15685785096896
5.53,-0.06422590659275883,74.24774094607615
5.54,-0.06361630476747163,74.49228205765324
5.55,-0.06483550841804603,74.61408414387937
5.56,-0.06757871663183844,74.98042734168259
5.57,-0.07032192484563085,76.32306110754449
5.58,-0.07127987057108218,76.26216006443143
5.59,-0.07049609679571292,76.38396215065757
5.6,-0.06910272119505645,76.23124107331249
5.61,-0.06910272119505645,85.9969575712739
5.62,-0.0680576894945641,85.84517343305363
5.63,-0.06514030933068964,85.56971333035762
5.64,-0.06635951298126404,85.41792919213735
5.65,-0.06910272119505645,85.50881228724455
5.66,-0.0692768931451385,85.50881228724455
5.67,-0.06836249040720771,85.56971333035762
5.68,-0.06849311936976925,85.11248703744721
5.69,-0.06971232302034365,84.34981858984665
5.7,-0.07080089770835651,83.03716687597887
5.71,-0.07019129588306931,81.84725418746203
5.72,-0.0686672913198513,76.62850326223464
5.73,-0.06666431389390765,75.92673585774716
5.74,-0.06453070750540243,75.3467705394858
5.75,-0.061787499291610024,75.07224737591459
5.76,-0.06196167124169208,74.52226410964737
5.77,-0.06348567580491009,74.21775889408202
5.78,-0.06392110568011523,74.21775889408202
5.79,-0.062092300204253624,73.94323573051082
5.8,-0.06087309655367922,73.45415350735665
5.81,-0.06043766667847408,73.45415350735665
5.82,-0.05843468925253041,73.02690926644037
5.83,-0.0559962819513816,72.72240405087504
5.84,-0.0559962819513816,72.29515980995876
5.85,-0.057999259377325266,71.92881661215554
5.86,-0.05172906917437118,71.53155442323339
5.87,-0.04454447623348629,71.13522917343604
5.88,-0.012496837418387651,70.70798493251976
5.89,0.05934909199046121,70.34164173471656
5.9,0.07889989338717221,70.28074069160348
5.91,0.023643842223639352,69.94531648491922
5.92,-0.028520656825936973,69.48715325288399
5.93,-0.05678005572675086,69.60895533911012
5.94,-0.07506811048536693,69.0599090119677
5.95,-0.08055452691295176,68.72448480528344
5.96,-0.07933532326237736,68.32722261636128
5.97,-0.07889989338717221,68.29724056436716
5.98,-0.08085932782559535,67.86999632345088
5.99,-0.12514254613395856,67.50365312564766
6.0,-0.36375811774637784,67.07640888473138
6.01,-0.4623394414928226,67.13730992784444
6.02,0.48842169101761074,66.71006568692816
6.03,1.7981076696596447,66.40462353223802
6.04,1.4120555423027634,66.28282144601188
6.05,-0.10833495295103998,66.52736255758896
6.06,-0.531442162687879,65.9473972393276
6.07,-0.10315333743609877,65.64195508463746
6.08,0.021510235835134145,65.52015299841132
6.09,-0.04593785183414276,65.6728740757564
6.1,-0.04807145822264797,65.21471084372118
6.11,-0.02595162056222662,65.18472879172705
6.12,-0.013411240156318454,64.7874666028049
6.13,-0.0016981765133000642,64.7874666028049
6.14,0.0035269819891616716,64.45204239612062
6.15,0.008534425554020834,64.45204239612062
6.16,0.019071828533985334,64.23842027566248
6.17,0.03065426321444218,63.963897112091274
6.18,0.044718648183568355,63.9938791640854
6.19,0.06392110568011523,63.9938791640854
6.2,0.08651991620326224,63.56663492316912
6.21,0.11046855933954519,63.50573388005605
6.22,0.13837961434019497,63.170309673371776
6.23,0.17364943423181167,63.2002917253659
6.24,0.22019688789124164,62.743065432455495
6.25,0.27832677623112845,62.77304748444962
6.26,0.34242205386132574,62.743065432455495
6.27,0.41230854883175144,62.86486751868163
6.28,0.4820208718520951,62.590344355110425
6.29,0.540324932142064,62.8348854666875
6.3,0.5671909554422214,63.597553914288056
6.31,0.5389315565414075,66.3746414802439
6.32,0.44156943644553714,72.32514186195289
6.33,0.30183998949220625,72.44788088730384
6.34,0.1667696422035704,80.9318646625164
6.35,0.0662288840187025,89.87307473063937
6.36,0.00030480091264360124,97.10530783509721
6.37,-0.03892743084333993,102.81220404435395
6.38,-0.0566058837766688,106.26107696280314
6.39,-0.06409527763019729,107.42100759932585
6.4,-0.06727391571919485,107.81733284912319
6.41,-0.06635951298126404,107.9091528833552
6.42,-0.0668384858439897,107.48190864243892
6.43,-0.0668384858439897,106.71830325571355
6.44,-0.06544511024333324,105.46748952408365
6.45,-0.06257127306697928,103.57580943107932
6.46,-0.057389657552038065,99.54697119436877
6.47,-0.05447227738816359,95.18270875097394
6.48,-0.053078901787507134,90.72756321247194
6.49,-0.05264347191230199,87.55415039671877
6.5,-0.0566058837766688,85.90607447616671
6.51,-0.05921846302789967,85.14246908944133
6.52,-0.05812988833988681,85.11248703744721
6.53,-0.05891366211525607,84.68524279653093
6.54,-0.0575202865145996,84.2270795644957
6.55,-0.055865652988820055,83.52531216000821
6.56,-0.058304060289968866,83.00624788485993
6.57,-0.06148269837896642,82.24357943725937
6.58,-0.06287607397962289,81.26728886920067
6.59,-0.06453070750540243,80.16825927579103
6.6,-0.0656192821934153,79.00832863926831
6.61,-0.07001712393298726,77.51297379606133
6.62,-0.0761566851733798,75.40767158259887
6.63,-0.07811611961180295,74.33956098030816
6.64,-0.07964012417502095,73.05782825755932
6.65,-0.08024972600030815,72.66150300776198
6.66,-0.07842092052444655,72.63058401664304
6.67,-0.0761566851733798,72.72240405087504
6.68,-0.07750651778651574,72.6914850597561
6.69,-0.08103349977567742,72.81328714598223
6.7,-0.08299293421410056,73.02690926644037
6.71,-0.08207853147616977,73.39325246424359
6.72,-0.08286230525153902,74.15685785096896
6.73,-0.08651991620326224,74.21775889408202
6.74,-0.08530071255268783,74.18683990296309
6.75,-0.08421213786467498,74.21775889408202
6.76,-0.08665054516582378,84.59342276229891
6.77,-0.08665054516582378,84.34981858984665
6.78,-0.08469111072740063,84.19709751250157
6.79,-0.08530071255268783,83.92257434893037
6.8,-0.08786974881639818,82.9762658328658
6.81,-0.08712951802854944,82.24357943725937
6.82,-0.08238333238881336,80.53460247359425
6.83,-0.08011909703774661,79.52739291441661
6.84,-0.08347190707682622,77.78843389875736
6.85,-0.08499591164004423,77.11664854626399
6.86,-0.08512654060260577,76.23124107331249
6.87,-0.08238333238881336,75.49949161683088
6.88,-0.08072869886303381,74.98042734168259
6.89,-0.08512654060260577,74.2786599371951
6.9,-0.08695534607846739,73.82049670515987
6.91,-0.08286230525153902,73.4850724984756
6.92,-0.08316710616418263,73.02690926644037
6.93,-0.08360253603938776,72.7833050939881
6.94,-0.08225270342625182,72.66150300776198
6.95,-0.08469111072740063,72.29515980995876
6.96,-0.08726014699111098,71.86791556904248
6.97,-0.08773911985383664,71.8978976210366
6.98,-0.08651991620326224,71.53155442323339
6.99,-0.07707108791131059,71.07432813032298
7.0,-0.06544511024333324,71.1043101823171
7.01,-0.026082249524788163,70.76888597563284
7.02,0.043499444532993946,70.3725607258355
7.03,0.04332527258291189,69.94531648491922
7.04,-0.02595162056222662,69.36535116665786
7.05,-0.07262970318421813,69.15172904619972
7.06,-0.09096130093035472,68.63266477105142
7.07,-0.10620134656253477,68.38906059859916
7.08,-0.11064273128962725,67.83907733233193
7.09,-0.10820432398847844,67.96181635768288
7.1,-0.10850912490112204,67.50365312564766
7.11,-0.11338593950341966,67.59547315987966
7.12,-0.20460849835889747,67.59547315987966
7.13,-0.47622965451186666,67.16822891896338
7.14,-0.3285318408422816,66.80188572116018
7.15,0.8807440085774461,66.49644356647002
7.16,1.782388651164739,66.00829828244068
7.17,0.7733234583643369,66.10011831667268
7.18,-0.5308325608625918,65.5810540415244
7.19,-0.5010927003860804,65.6728740757564
7.2,-0.09644771735793954,65.27561188683424
7.21,-0.02303424039835215,65.27561188683424
7.22,-0.06287607397962289,64.7874666028049
7.23,-0.06270190202954083,64.94018768014998
7.24,-0.04423967532084269,64.72656555969184
7.25,-0.028694828776019032,64.54386243035263
7.26,-0.017547823970767328,64.39114135300755
7.27,-0.009013398416746494,64.0856991983174
7.28,0.0016981765133000642,63.93297812097233
7.29,0.01541421758226212,64.11661818943635
7.3,0.03248306869030379,63.963897112091274
7.31,0.04929066187322237,63.9938791640854
7.32,0.06910272119505645,63.475751828061924
7.33,0.09688314723314469,63.597553914288056
7.34,0.1267971796597381,63.62753596628218
7.35,0.15993339316284963,63.26212970760378
7.36,0.19851248010602543,63.50573388005605
7.37,0.2471935401539606,63.29211175959791
7.38,0.30471382666856023,62.77304748444962
7.39,0.3718571134251935,62.40764122577122
7.4,0.44143880748297565,62.40764122577122
7.41,0.5015716732488061,62.37672223465228
7.42,0.5456371766195668,62.37672223465228
7.43,0.5517767378599593,62.315821191539214
7.44,0.49926389491021883,62.65124539822349
7.45,0.38252514536771953,63.50573388005605
7.46,0.2339129289602037,63.597553914288056
7.47,0.10772535112575278,63.658454957401126
7.48,0.02090063400984694,67.93089736656394
7.49,-0.03587942171690392,75.49949161683088
7.5,-0.06531448128077169,85.50881228724455
7.51,-0.07598251322329774,93.81009293311791
7.52,-0.08164310160096462,106.62742016060636
7.53,-0.08451693877731857,106.68832120371943
7.54,-0.08469111072740063,105.86381477388099
7.55,-0.08591031437797504,105.52839056719671
7.56,-0.08390733695203137,104.61300104225108
7.57,-0.07950949521245941,103.27036727638917
7.58,-0.0755470833480926,99.45515116013677
7.59,-0.07249907422165658,94.6945634669446
7.6,-0.07232490227157452,89.8121736875263
7.61,-0.07232490227157452,85.87515548504776
7.62,-0.06988649497042572,83.0680858670978
7.63,-0.0665336849313461,81.84725418746203
7.64,-0.06757871663183844,81.2972709211948
7.65,-0.06897209223249491,81.35910890343268
7.66,-0.07080089770835651,81.2972709211948
7.67,-0.07646148608602339,80.47370143048117
7.68,-0.07903052234973375,80.56552146471319
7.69,-0.07933532326237736,80.1382772237969
7.7,-0.08085932782559535,79.40559082819047
7.71,-0.08207853147616977,78.70382342370299
7.72,-0.08268813330145697,77.81841595075149
7.73,-0.08438630981475703,76.72032329646665
7.74,-0.08499591164004423,73.45415350735665
7.75,-0.08604094334053658,71.6233744574654
7.76,-0.08712951802854944,70.70798493251976
7.77,-0.08695534607846739,69.97529853691334
7.78,-0.08651991620326224,69.45717120088986
7.79,-0.08834872167912385,69.60895533911012
7.8,-0.09078712898027265,69.578973287116
7.81,-0.0903516991050675,69.54805429599706
7.82,-0.09048232806762906,69.94531648491922
7.83,-0.09248530549357271,70.34164173471656
7.84,-0.09413993901935228,71.95879866414967
7.85,-0.09413993901935228,75.10222942790871
7.86,-0.09400931005679072,74.98042734168259
7.87,-0.09431411096943433,75.01134633280152
7.88,-0.09431411096943433,75.01134633280152
7.89,-0.09657834632050108,75.07224737591459
7.9,-0.09888612465908835,82.51810260083057
7.91,-0.09657834632050108,82.24357943725937
7.92,-0.09400931005679072,81.32818991231375
7.93,-0.09522851370736513,79.83283506910675
7.94,-0.09596874449521388,78.18475914855469
7.95,-0.09688314723314469,77.14756753738293
7.96,-0.08895832350441105,75.3467705394858
7.97,-0.07158467148372577,74.24774094607615
7.98,-0.05064049448635832,73.45415350735665
7.99,0.003962411864366816,73.08874724867826
8.0,0.04423967532084269,72.29515980995876
8.01,0.008534425554020834,71.95879866414967
8.02,-0.04929066187322237,71.86791556904248
8.03,-0.08011909703774661,71.59339240547128
8.04,-0.10010532830966275,71.47065338012032
8.05,-0.1132117675533376,71.22704920766806
8.06,-0.11460514315399406,70.73890392363872
8.07,-0.11369074041606327,70.31165968272244
8.08,-0.11673874954249927,70.40254277782962
8.09,-0.1264923787470945,69.97529853691334
8.1,-0.25938557665970463,69.48715325288399
8.11,-0.5135895378044681,69.578973287116
8.12,-0.1156501748544864,69.51807224400294
8.13,1.2411493162847442,69.60895533911012
8.14,1.785436660291175,69.15172904619972
8.15,0.45471941867673255,69.12081005508078
8.16,-0.6251466718320261,68.6935658141645
8.17,-0.3758195252895603,68.29724056436716
8.18,-0.045023449096211955,67.77817628921886
8.19,-0.03923223175598353,67.59547315987966
8.2,-0.07872572143709015,67.04548989361244
8.21,-0.06453070750540243,66.68008363493404
8.22,-0.04868106004793517,66.28282144601188
8.23,-0.04180126801969388,66.03921727355961
8.24,-0.03248306869030379,65.9473972393276
8.25,-0.021510235835134145,65.55013505040544
8.26,-0.009144027379308037,65.61197303264333
8.27,0.0027432082137924113,65.21471084372118
8.28,0.015240045632180062,64.7874666028049
8.29,0.03278786960294739,64.42112340500168
8.3,0.053732046600314845,64.33024030989449
8.31,0.07689691596122854,64.45204239612062
8.32,0.1038935682239475,63.93297812097233
8.33,0.13898921616548215,63.93297812097233
8.34,0.18340306343640692,63.536652871174994
8.35,0.2369609380866397,63.536652871174994
8.36,0.30153518857956263,63.13939068225284
8.37,0.3718571134251935,63.231210716484846
8.38,0.4406550337076064,62.77304748444962
8.39,0.5027908768993805,62.77304748444962
8.4,0.540324932142064,62.71214644133656
8.41,0.525520316385089,63.231210716484846
8.42,0.43943583005703196,63.536652871174994
8.43,0.2990532382908933,63.597553914288056
8.44,0.15196502644659549,63.597553914288056
8.45,0.04197543996977594,66.19100141177988
8.46,-0.026082249524788163,71.98971765526862
8.47,-0.06727391571919485,80.32098035313611
8.48,-0.08591031437797504,89.35401045549108
8.49,-0.09261593445613427,106.29105901479727
8.5,-0.09583811553265233,106.65740221260049
8.51,-0.09962635544693708,106.20017591969007
8.52,-0.10254373561081156,105.83383272188686
8.53,-0.1002359572722243,105.16204736939349
8.54,-0.09797172192115754,104.30755888756093
8.55,-0.09766692100851394,104.36845993067399
8.56,-0.09492371279472153,104.30755888756093
8.57,-0.09139673080555986,101.89681451940832
8.58,-0.08726014699111098,97.77709318759058
8.59,-0.08530071255268783,93.35192970108268
8.6,-0.08530071255268783,89.38492944661002
8.61,-0.08408150890211342,86.6996619148862
8.62,-0.08103349977567742,84.65432380541199
8.63,-0.07903052234973375,84.34981858984665
8.64,-0.07903052234973375,83.89165535781143
8.65,-0.07889989338717221,83.46441111689515
8.66,-0.07811611961180295,83.46441111689515
8.67,-0.08055452691295176,82.67082367817565
8.68,-0.08408150890211342,81.69453311011695
8.69,-0.08451693877731857,80.99276570562947
8.7,-0.08390733695203137,80.10735823267797
8.71,-0.08499591164004423,79.03924763038727
8.72,-0.08469111072740063,77.42209070095414
8.73,-0.08438630981475703,75.77401478040208
8.74,-0.08817454972904179,73.02690926644037
8.75,-0.09139673080555986,71.95879866414967
8.76,-0.09065650001771111,71.47065338012032
8.77,-0.09004689819242391,71.19613021654912
8.78,-0.09187570366828551,71.19613021654912
8.79,-0.09139673080555986,71.13522917343604
8.8,-0.08895832350441105,71.1043101823171
8.81,-0.08847935064168538,71.56247341435233
8.82,-0.09065650001771111,71.8978976210366
8.83,-0.09218050458092912,72.7833050939881
8.84,-0.09309490731885992,74.98042734168259
8.85,-0.09492371279472153,75.10222942790871
8.86,-0.09766692100851394,74.98042734168259
8.87,-0.09840715179636268,75.04132838479565
8.88,-0.09827652283380114,74.98042734168259
8.89,-0.09675251827058313,75.19404946214073
8.9,-0.09492371279472153,80.50462042160012
8.91,-0.09353033719406506,79.46649187130355
8.92,-0.09322553628142147,78.21567813967364
8.93,-0.09200633263084707,76.65848531422877
8.94,-0.09126610184299831,75.31585154836685
8.95,-0.09078712898027265,74.5531831007663
8.96,-0.0891324954544931,73.7595956620468
8.97,-0.08573614242789297,73.54597354158867
8.98,-0.08390733695203137,72.63058401664304
8.99,-0.08360253603938776,72.32514186195289
9.0,-0.08360253603938776,71.86791556904248
9.01,-0.08347190707682622,71.59339240547128
9.02,-0.08055452691295176,71.50157237123926
9.03,-0.07585188426073619,71.19613021654912
9.04,-0.07598251322329774,71.166148164555
9.05,-0.07097506965843857,70.76888597563284
9.06,-0.06087309655367922,70.3725607258355
9.07,-0.03156866595237299,69.94531648491922
9.08,0.03309267051559099,69.578973287116
9.09,0.054036847512958446,69.51807224400294
9.1,0.0030480091264360122,69.02992695997358
9.11,-0.04454447623348629,68.7853858483965
9.12,-0.06775288858192051,68.26632157324822
9.13,-0.08756494790375459,67.96181635768288
9.14,-0.09535914266992668,67.4427520825346
9.15,-0.09522851370736513,67.1982109709575
9.16,-0.09901675362164988,66.77096673004122
9.17,-0.10284853652345516,66.80188572116018
9.18,-0.14360477284265669,66.40462353223802
9.19,-0.3759936972396424,65.9473972393276
9.2,-0.5077983204642397,65.9473972393276
9.21,0.3805657109292964,65.6728740757564
9.22,1.7323142155161473,65.48923400729238
9.23,1.4765862498081659,65.12289080948916
9.24,-0.055691481038738,64.84836764591796
9.25,-0.5776848154346654,64.81838559392384
9.26,-0.15610161026104435,64.29932131877554
9.27,-0.0035269819891616716,63.963897112091274
9.28,-0.06836249040720771,63.93297812097233
9.29,-0.07567771231065414,63.56663492316912
9.3,-0.051859698136932725,63.50573388005605
9.31,-0.03905805980590148,63.13939068225284
9.32,-0.02943505956386778,63.13939068225284
9.33,-0.0207700050472854,63.231210716484846
9.34,-0.012801638331031252,62.65124539822349
9.35,-0.0021336063885052086,62.8348854666875
9.36,0.011147004805251702,62.19401910531308
9.37,0.028085226950731828,62.34580324353334
9.38,0.046852254572073565,61.949477993736
9.39,0.07032192484563085,61.85765795950399
9.4,0.09718794814578828,61.55315274393866
9.41,0.12636174978453296,61.55315274393866
9.42,0.16128322577598558,61.43041371858771
9.43,0.20173466118254352,61.18680954613544
9.44,0.25346373035691466,61.18680954613544
9.45,0.32043284516346593,61.18680954613544
9.46,0.39550095564883286,60.75956530521916
9.47,0.46739042804520226,61.18680954613544
9.48,0.5261299182103762,61.12590850302238
9.49,0.5566535524622569,61.61405378705172
9.5,0.5324001084133303,64.17751923254941
9.51,0.43961000200711403,70.34164173471656
9.52,0.30027244194146774,70.79980496675178
9.53,0.1592802483500419,79.46649187130355
9.54,0.053427245687671245,89.01858624880681
9.55,-0.011451805717895303,96.67806359418093
9.56,-0.04820208718520951,101.68319239895018
9.57,-0.06958169405778211,105.16204736939349
9.58,-0.0749374815228054,106.56651911749329
9.59,-0.07293450409686172,107.05466440152264
9.6,-0.07110569862100012,106.62742016060636
9.61,-0.06988649497042572,105.86381477388099
9.62,-0.0692768931451385,105.00932629204843
9.63,-0.0692768931451385,104.2775768355668
9.64,-0.06574991115597684,101.92773351052726
9.65,-0.06087309655367922,101.98863455364032
9.66,-0.05934909199046121,101.98863455364032
9.67,-0.05843468925253041,101.77501243318218
9.68,-0.0569106846893124,97.3498489466743
9.69,-0.05678005572675086,92.9246854601664
9.7,-0.05891366211525607,88.9267662145748
9.71,-0.06148269837896642,86.02787656239283
9.72,-0.0650096803681281,82.12177735103323
9.73,-0.06531448128077169,81.75543415323003
9.74,-0.06409527763019729,80.84004462828439
9.75,-0.0662288840187025,80.1382772237969
9.76,-0.06714328675663331,79.31377079395847
9.77,-0.06727391571919485,78.55110234635791
9.78,-0.07001712393298726,77.3911717098352
9.79,-0.07219427330901299,76.20125902131836
9.8,-0.07171530044628732,74.09501986873109
9.81,-0.07080089770835651,72.96600822332731
9.82,-0.0692768931451385,71.47065338012032
9.83,-0.06958169405778211,71.13522917343604
9.84,-0.07310867604694378,70.79980496675178
9.85,-0.07432787969751818,70.76888597563284
9.86,-0.07219427330901299,70.6470838894067
9.87,-0.07049609679571292,70.76888597563284
9.88,-0.07280387513430019,70.86070600986484
9.89,-0.07354410592214893,71.22704920766806
9.9,-0.07280387513430019,71.19613021654912
9.91,-0.07354410592214893,71.59339240547128
9.92,-0.07476330957272333,72.75238610286917
9.93,-0.07524228243544899,72.75238610286917
9.94,-0.07720171687387214,73.3023693691364
9.95,-0.07903052234973375,81.75543415323003
9.96,-0.07933532326237736,81.78635314434896
9.97,-0.07933532326237736,81.35910890343268
9.98,-0.07842092052444655,80.56552146471319
9.99,-0.07537291139801054,79.61921294864861
