time_s,ECG,NIBP
0.0,1.5931584721678955,-255.15573995545927
0.01,1.5841888449288093,167.26410201653496
0.02,1.5023648517637418,-254.9421885963574
0.03,1.365959722633171,165.95228652490923
0.04,1.2176746084891301,-255.85740870679396
0.05,1.085038631230303,166.44040391714205
0.06,0.9899987511225393,-255.1252326184447
0.07,0.9283564192454155,166.37938924311294
0.08,0.8958653758953214,-254.91168125934286
0.09,0.8796914203950544,167.1115653314622
0.1,0.8688133618285032,-254.97269593337194
0.11,0.8651873423063194,167.1725800054913
0.12,0.8724870921338735,-254.51508587815366
0.13,0.8854644251606365,168.3318588120443
0.14,0.8993482630679454,-255.58284267366298
0.15,0.9069819883778059,167.26410201653496
0.16,0.9072682530769256,-255.8879160438085
0.17,0.9054552433158338,166.37938924311294
0.18,0.9059323511477001,-256.0099453918667
0.19,0.90607548349726,166.68446261325846
0.2,0.9026880178910093,-254.85066658531375
0.21,0.8933844151696168,167.14207266847674
0.22,0.8821246703375725,-255.03371060740105
0.23,0.8781646753330823,167.47765337563683
0.24,0.877687567501216,-255.30827664053203
0.25,0.8676205922488375,168.08780011592788
0.26,0.8579830140451385,-255.1252326184447
0.27,0.8541661513902082,167.26410201653496
0.28,0.8523531416291164,-255.39979865157568
0.29,0.8438129114387098,167.1115653314622
0.3,0.8364654508279691,-255.1862472924738
0.31,0.8319329264252394,166.71496995027303
0.32,0.8281160637703091,-256.1014674029104
0.33,0.8222953482215405,167.72171207175325
0.34,0.8209117355091282,-254.9421885963574
0.35,0.8213888433409945,167.38613136459315
0.36,0.8229155884029666,-255.85740870679396
0.37,0.8245854658144987,167.1115653314622
0.38,0.8239652256330725,-256.0404527288813
0.39,0.8174288483365044,167.47765337563683
0.4,0.8149955983939863,-256.1014674029104
0.41,0.819528122796716,167.53866804966592
0.42,0.8236789609339527,-254.36254919308092
0.43,0.8218182403896742,166.62344793922938
0.44,0.8263984755755905,-255.36929131456114
0.45,0.8320760587747993,167.08105799444763
0.46,0.8337459361863313,-254.85066658531375
0.47,0.8341753332350109,167.44714603862226
0.48,0.8367994263102755,-256.192989413954
0.49,0.8418090585448715,168.11830745294242
0.5,0.8513035043990106,-255.15573995545927
0.51,0.8640899942930269,166.9285213093749
0.52,0.8903309250456726,-256.2234967509686
0.53,0.9223925713470869,166.98953598340398
0.54,0.9591775851839773,-254.8811739223283
0.55,0.9863250208171689,167.6301900607096
0.56,0.9797886435206008,-254.42356386711
0.57,0.9388527915464736,167.0505506574331
0.58,0.8883747829350208,-254.85066658531375
0.59,0.8589372297088711,167.0505506574331
0.6,0.8564562689831664,-255.85740870679396
0.61,0.8524962739786762,167.72171207175325
0.62,0.8532596465096624,-255.8269013697794
0.63,0.8670003520674113,167.78272674578236
0.64,0.8692904696603695,-254.9421885963574
0.65,0.9405703797411923,167.66069739772414
0.66,1.2448220441223217,-255.06421794441562
0.67,1.846025623057026,167.874248756826
0.68,2.087537607547739,-255.24726196650292
0.69,1.2724465875873794,166.56243326520027
0.7,0.44542787183036275,-255.15573995545927
0.71,0.4888923953133812,167.1115653314622
0.72,0.7928577949953908,-254.7591445742701
0.73,0.9219154635152206,167.50816071265137
0.74,0.9440532669138162,-255.8269013697794
0.75,0.9557901195777267,167.20308734250585
0.76,0.973347687790406,-255.09472528143016
0.77,0.9936724814279096,168.3318588120443
0.78,1.0139495642822267,-254.91168125934286
0.79,1.032270505025892,167.53866804966592
0.8,1.0499712055881312,-254.7591445742701
0.81,1.070534553141568,167.72171207175325
0.82,1.0968231946774003,-255.67436468470663
0.83,1.1225870175981796,166.95902864638944
0.84,1.1549349285987136,-255.85740870679396
0.85,1.1993536677454648,167.41663870160772
0.86,1.2600894947420427,-254.9421885963574
0.87,1.3372855419380074,167.66069739772414
0.88,1.4332796377095038,-255.15573995545927
0.89,1.5358101107775681,167.08105799444763
0.9,1.631756495765878,-255.09472528143016
0.91,1.7024161656652745,166.31837456908386
0.92,1.7394874442012849,-255.97943805485215
0.93,1.725603606293976,167.59968272369503
0.94,1.6366707064341006,-255.6438573476921
0.95,1.4945879941043212,168.14881478995696
0.96,1.3487361299027982,-254.78965191128464
0.97,1.218581113369676,166.74547728728757
0.98,1.1232072577796057,-255.24726196650292
0.99,1.0635210680131337,167.47765337563683
1.0,1.032270505025892,-254.51508587815366
1.01,1.0148560691627726,167.56917538668048
1.02,1.0038825890298482,-254.72863723725553
1.03,1.0052662017422604,167.90475609384055
1.04,1.015476309344199,-255.39979865157568
1.05,1.0226329268221932,167.59968272369503
1.06,1.0319365295435856,-254.85066658531375
1.07,1.0406676028667388,167.3556240275786
1.08,1.0498280732385714,-255.33878397754657
1.09,1.0563644505351395,166.5929406022148
1.1,1.0540743329421813,-255.30827664053203
1.11,1.0481104850438527,167.38613136459315
1.12,1.0483013281765992,-254.42356386711
1.13,1.0484444605261591,167.874248756826
1.14,1.0431008528092567,-255.4608133256048
1.15,1.033940382437424,167.02004332041855
1.16,1.0301235197824938,-255.67436468470663
1.17,1.0222035297735135,166.89801397236033
1.18,1.0192931719991292,-255.1862472924738
1.19,1.0188160641672628,167.20308734250585
1.2,1.0124228192202547,-256.2845114249977
1.21,1.0084628242157645,167.2335946795204
1.22,1.012136554521135,-255.4608133256048
1.23,1.0115163143397088,168.02678544189877
1.24,1.0092261967467506,-254.42356386711
1.25,1.0093693290963104,167.53866804966592
1.26,1.0093693290963104,-255.33878397754657
1.27,1.0058387311405,167.59968272369503
1.28,1.0087490889148842,-254.97269593337194
1.29,1.013663299583107,167.0505506574331
1.3,1.0162396818751849,-255.27776930351746
1.31,1.0159534171760651,167.7522194087678
1.32,1.0189591965168228,-255.9489307178376
1.33,1.0165259465743046,166.89801397236033
1.34,1.0131861917512408,-255.8879160438085
1.35,1.029837255083374,167.8132340827969
1.36,1.0644752836768663,-254.42356386711
1.37,1.0935788614207096,167.59968272369503
1.38,1.1234935224787255,-255.79639403276485
1.39,1.1493050561826916,166.95902864638944
1.4,1.1511180659437834,-255.61335001067755
1.41,1.1184838902441296,166.31837456908386
1.42,1.063998175845,-255.9489307178376
1.43,1.0244936473664716,167.0505506574331
1.44,1.018529799468143,-255.03371060740105
1.45,1.0214401572425273,166.98953598340398
1.46,1.0223466621230735,-255.58284267366298
1.47,1.0238734071850455,166.8675066353458
1.48,1.0256864169461373,-255.7048720217212
1.49,1.0733017785663925,167.41663870160772
1.5,1.313954968959746,-256.0099453918667
1.51,1.892257371964869,166.89801397236033
1.52,2.2552410104487377,-255.55233533664844
1.53,1.5820418596854111,167.66069739772414
1.54,0.6947167139804962,-255.1862472924738
1.55,0.6056406817710609,167.50816071265137
1.56,0.8917145377580848,-255.85740870679396
1.57,1.0591316759599638,168.08780011592788
1.58,1.1024530670934225,-255.91842338082307
1.59,1.1152872677706254,167.93526343085512
1.6,1.1280737576646418,-254.60660788919733
1.61,1.143198075934803,167.7522194087678
1.62,1.1610419088466022,-255.43030598859022
1.63,1.1752120114530307,166.98953598340398
1.64,1.1950596972586682,-255.8269013697794
1.65,1.218437981020116,167.44714603862226
1.66,1.242961323578043,-255.9489307178376
1.67,1.2725897199369394,167.3556240275786
1.68,1.3093747337738297,-254.8811739223283
1.69,1.3493563700842244,167.02004332041855
1.7,1.4001683541779837,-255.43030598859022
1.71,1.47536054848011,167.2335946795204
1.72,1.5768413843180686,-255.36929131456114
1.73,1.6797058328684396,167.38613136459315
1.74,1.7703086101398469,-255.49132066261933
1.75,1.8431152652826417,168.02678544189877
1.76,1.8872000289470863,-254.7591445742701
1.77,1.868879088203421,167.50816071265137
1.78,1.7744594482770835,-255.39979865157568
1.79,1.6284167409428139,167.9962781048842
1.8,1.4743109112500041,-254.85066658531375
1.81,1.3411024045929376,168.08780011592788
1.82,1.2475415587639593,-255.6438573476921
1.83,1.191099702254178,167.26410201653496
1.84,1.1572250461916718,-254.8811739223283
1.85,1.1341807379125304,168.11830745294242
1.86,1.1196766598237953,-255.67436468470663
1.87,1.1189132872928091,167.1115653314622
1.88,1.131270380138146,-254.7591445742701
1.89,1.1389041054480065,167.3556240275786
1.9,1.145011085695895,-255.21675462948838
1.91,1.145011085695895,167.3556240275786
1.92,1.1409079583418449,-254.9421885963574
1.93,1.1436274729834828,167.1725800054913
1.94,1.1485416836517055,-255.09472528143016
1.95,1.143341208284363,167.32511669056407
1.96,1.1387609730984467,-255.06421794441562
1.97,1.1300776105584802,166.9285213093749
1.98,1.1189132872928091,-255.03371060740105
1.99,1.110850164934269,167.84374141981144
2.0,1.1073195669784586,-255.67436468470663
2.01,1.1051725817350602,167.32511669056407
2.02,1.1010694543810102,-255.4608133256048
2.03,1.0893326017170997,166.83699929833122
2.04,1.0751147883274843,-255.61335001067755
2.05,1.0669085336193842,167.50816071265137
2.06,1.0678150384999303,-254.85066658531375
2.07,1.0707253962743146,167.84374141981144
2.08,1.0702482884424482,-255.1862472924738
2.09,1.0595610730086436,167.26410201653496
2.1,1.0553148133050336,-255.61335001067755
2.11,1.0589408328272174,166.83699929833122
2.12,1.0566507152342592,-256.1014674029104
2.13,1.0470608478137469,167.59968272369503
2.14,1.0424806126278305,-254.97269593337194
2.15,1.0400473626853124,166.9285213093749
2.16,1.0379003774419142,-255.6438573476921
2.17,1.034083514786984,167.20308734250585
2.18,1.0431008528092567,-256.80313615424507
2.19,1.0653817885574122,167.2335946795204
2.2,1.0888554938852333,-255.55233533664844
2.21,1.1129971501776672,167.47765337563683
2.22,1.1335604977311042,-254.85066658531375
2.23,1.1256405077221239,167.38613136459315
2.24,1.0884260968365538,-255.15573995545927
2.25,1.0330338775568781,166.9285213093749
2.26,0.9921457363659376,-256.0709600658958
2.27,0.9793115356887345,167.3556240275786
2.28,0.9771645504453362,-255.15573995545927
2.29,0.9730614230912862,167.1115653314622
2.3,0.971677810378874,-255.39979865157568
2.31,0.9695308251354757,166.56243326520027
2.32,1.035753392198516,-255.06421794441562
2.33,1.2977810134594792,167.08105799444763
2.34,1.8694993283848471,-255.49132066261933
2.35,2.1881119385051515,166.25735989505475
2.36,1.460093097860389,-255.1862472924738
2.37,0.5712889178766885,166.89801397236033
2.38,0.5367940216327561,-256.0709600658958
2.39,0.8386124360713674,167.02004332041855
2.4,0.9761149132152305,-255.27776930351746
2.41,0.9939587461270295,167.6301900607096
2.42,1.0012584959545836,-255.91842338082307
2.43,1.0128999270521208,166.65395527624392
2.44,1.0263066571275634,-255.61335001067755
2.45,1.0394271225038862,166.47091125415662
2.46,1.049207833057145,-255.52182799963387
2.47,1.0576049308979918,166.62344793922938
2.48,1.0746853912788048,-254.45407120412457
2.49,1.09725259172608,166.89801397236033
2.5,1.1210602725362075,-255.27776930351746
2.51,1.148207708169399,166.95902864638944
2.52,1.194439457077242,-254.48457854113911
2.53,1.2585627496800706,167.2335946795204
2.54,1.3322281989202247,-255.15573995545927
2.55,1.4239283242049245,167.2335946795204
2.56,1.5270790374544152,-255.15573995545927
2.57,1.6192562705709812,167.0505506574331
2.58,1.6900590728199378,-254.8811739223283
2.59,1.726223846475402,166.56243326520027
2.6,1.7056127881387786,-255.0032032703865
2.61,1.6059926728450986,166.77598462430214
2.62,1.4572304508691911,-255.43030598859022
2.63,1.3059872681675793,167.44714603862226
2.64,1.1793628495902675,-255.33878397754657
2.65,1.0896188664162194,167.78272674578236
2.66,1.0337972500878643,-255.4608133256048
2.67,1.000065726374918,166.77598462430214
2.68,0.9817447856312526,-254.9421885963574
2.69,0.9718209427284339,166.50141859117116
2.7,0.970007932967342,-254.78965191128464
2.71,0.970771305498328,166.71496995027303
2.72,0.9757809377329241,-255.73537935873574
2.73,0.9841780355737706,166.71496995027303
2.74,0.9939587461270295,-255.36929131456114
2.75,0.9977756087819597,167.02004332041855
2.76,0.9953423588394417,-255.09472528143016
2.77,0.9898556187729795,167.41663870160772
2.78,0.9884720060605672,-254.97269593337194
2.79,0.9858479129853026,167.2946093535495
2.8,0.9776416582772025,-254.97269593337194
2.81,0.9657139624805454,166.37938924311294
2.82,0.9564103597591529,-254.82015924829918
2.83,0.9478701295687464,166.89801397236033
2.84,0.9409997767898719,-254.57610055218277
2.85,0.9326026789490254,166.56243326520027
2.86,0.924682688940045,-253.90493913786264
2.87,0.919816189055009,165.22011043655996
2.88,0.9143294489885466,-255.15573995545927
2.89,0.9048350031344076,166.44040391714205
2.9,0.8984417581873994,-254.1795051709936
2.91,0.8910942975766586,167.2335946795204
2.92,0.8886610476341406,-255.0032032703865
2.93,0.8888041799837004,166.8675066353458
2.94,0.8867049055234888,-255.9489307178376
2.95,0.8839376800986644,167.14207266847674
2.96,0.8839376800986644,-254.14899783397905
2.97,0.8822678026871323,166.3488819060984
2.98,0.8822678026871323,-254.9421885963574
2.99,0.8830311752181185,165.73873516580736
3.0,0.8808841899747202,-254.85066658531375
3.01,0.8778306998507759,165.92177918789466
3.02,0.8876114104040348,-254.1795051709936
3.03,0.9150928215195328,166.98953598340398
3.04,0.9509236196926907,-254.11849049696448
3.05,0.9786912955073084,166.37938924311294
3.06,0.9977756087819597,-254.2405198450227
3.07,0.9948652510075754,166.1658378840111
3.08,0.967574683024824,-254.42356386711
3.09,0.9194822135727025,165.830257176851
3.1,0.8767810626206701,-255.9489307178376
3.11,0.8584601218770048,166.89801397236033
3.12,0.8561700042840467,-254.08798315994994
3.13,0.8567902444654728,167.08105799444763
3.14,0.8593666267575507,-254.45407120412457
3.15,0.8564562689831664,166.19634522102564
3.16,0.9087949981388977,-253.90493913786264
3.17,1.1436274729834828,166.19634522102564
3.18,1.7072826655503106,-254.2405198450227
3.19,2.1518040325001273,167.59968272369503
3.2,1.5531768358575009,-255.24726196650292
3.21,0.551441232071051,166.98953598340398
3.22,0.4026790100951437,-255.21675462948838
3.23,0.7335055807112251,166.9285213093749
3.24,0.889758395647433,-253.87443180084807
3.25,0.9069819883778059,166.44040391714205
3.26,0.9138523411566803,-254.0574758229354
3.27,0.9255891938205909,167.14207266847674
3.28,0.9390436346792201,-254.45407120412457
3.29,0.9486335020997325,166.89801397236033
3.3,0.9584142126529913,-253.93544647487718
3.31,0.9715346780293141,167.3556240275786
3.32,0.987851765879141,-255.03371060740105
3.33,1.0083196918662045,166.44040391714205
3.34,1.0368507402118083,-254.48457854113911
3.35,1.0731586462168325,167.0505506574331
3.36,1.113569679575907,-254.14899783397905
3.37,1.1616621490280283,167.02004332041855
3.38,1.2333714561575309,-254.21001250800816
3.39,1.3264551941546427,167.26410201653496
3.4,1.4315620495147852,-254.48457854113911
3.41,1.5275561452862816,166.50141859117116
3.42,1.6005059327786364,-255.06421794441562
3.43,1.643063951381109,167.20308734250585
3.44,1.6361935986022345,-254.08798315994994
3.45,1.549693948684877,166.1658378840111
3.46,1.4042714815320336,-255.58284267366298
3.47,1.2480186665958257,166.22685255804018
3.48,1.1132834148767872,-255.30827664053203
3.49,1.0160965495256251,166.56243326520027
3.5,0.9603703547636431,-254.02696848592083
3.51,0.9295491888250811,166.1658378840111
3.52,0.9118484882628419,-254.85066658531375
3.53,0.9030219933733157,166.8675066353458
3.54,0.9022586208423297,-254.45407120412457
3.55,0.9014952483113436,166.4098965801275
3.56,0.9062186158468198,-254.63711522621188
3.57,0.9169058312806246,166.22685255804018
3.58,0.9283564192454155,-254.27102718203724
3.59,0.9365626739535154,167.26410201653496
3.6,0.9448166394448022,-254.42356386711
3.61,0.9448166394448022,165.89127185088012
3.62,0.9414768846217382,-253.90493913786264
3.63,0.9368966494358218,165.95228652490923
3.64,0.9286426839445352,-253.93544647487718
3.65,0.9193390812231427,167.20308734250585
3.66,0.9139954735062402,-254.72863723725553
3.67,0.9072682530769256,166.01330119893834
3.68,0.9024017531918895,-255.6438573476921
3.69,0.8967718807758674,166.13533054699653
3.7,0.8912851407094051,-253.93544647487718
3.71,0.8865140623907423,166.65395527624392
3.72,0.8808841899747202,-253.87443180084807
3.73,0.8731073323152997,165.61670581774916
3.74,0.8663801118859851,-254.02696848592083
3.75,0.8560268719344868,166.44040391714205
3.76,0.8491565191556123,-254.51508587815366
3.77,0.8450533918015622,166.50141859117116
3.78,0.8440991761378297,-254.27102718203724
3.79,0.84366977908915,165.49467646969094
3.8,0.8431926712572837,-254.54559321516822
3.81,0.8407594213147657,166.8675066353458
3.82,0.8395189409519134,-253.538851093688
3.83,0.8407594213147657,166.01330119893834
3.84,0.8431926712572837,-255.24726196650292
3.85,0.8407594213147657,165.89127185088012
3.86,0.8383261713722476,-253.9964611489063
3.87,0.8363223184784092,166.68446261325846
3.88,0.8367994263102755,-253.81341712681896
3.89,0.8383261713722476,165.67772049177825
3.9,0.8500630240361582,-253.90493913786264
3.91,0.8799776850941742,166.98953598340398
3.92,0.9173352283293043,-254.0574758229354
3.93,0.9487766344492924,166.13533054699653
3.94,0.9661910703124117,-254.36254919308092
3.95,0.953833977467075,165.70822782879281
3.96,0.9169058312806246,-253.9964611489063
3.97,0.8674774598992776,166.31837456908386
3.98,0.8343661763677575,-253.7218951157753
3.99,0.8268755834074568,166.3488819060984
4.0,0.8314558185933731,-252.92870435339697
4.01,0.8346524410668772,165.37264712163272
4.02,0.8381830390226878,-254.08798315994994
4.03,0.8390895439032336,166.44040391714205
4.04,0.9291197917764015,-253.50834375667344
4.05,1.2565588967862322,165.79974983983647
4.06,1.8734593233893373,-254.33204185606635
4.07,2.0839115880255554,165.61670581774916
4.08,1.2176746084891301,-254.39305653009546
4.09,0.3928982995418849,166.13533054699653
4.1,0.4840258954283451,-253.84392446383353
4.11,0.7909970744511122,165.89127185088012
4.12,0.8894244201651267,-252.83718234235332
4.13,0.896437905293561,166.25735989505475
4.14,0.9115622235637222,-253.44732908264436
4.15,0.9309328015374934,165.52518380670548
4.16,0.9437670022146963,-253.63037310473166
4.17,0.9539771098166349,165.79974983983647
4.18,0.970007932967342,-253.84392446383353
4.19,0.9834146630427846,165.830257176851
4.2,1.0012584959545836,-253.56935843070255
4.21,1.0226329268221932,165.1285884255163
4.22,1.0465837399818805,-254.36254919308092
4.23,1.076975508871763,165.55569114372005
4.24,1.1186270225936894,-253.2947923975716
4.25,1.1747826144043512,165.830257176851
4.26,1.25517528407382,-254.02696848592083
4.27,1.35054913966389,166.25735989505475
4.28,1.451743710802729,-252.56261630922234
4.29,1.5424896204236962,166.104823209982
4.3,1.610429775681455,-252.50160163519323
4.31,1.643684191562535,164.91503706641444
4.32,1.620162775451527,-253.78290978980442
4.33,1.521592297387953,164.79300771835625
4.34,1.376646938066976,-254.0574758229354
4.35,1.2298408582017202,166.104823209982
4.36,1.1056496895669266,-253.4168217456298
4.37,1.0156194416937587,165.28112511058907
4.38,0.9611337272946291,-253.2337777235425
4.39,0.9301694290065072,165.89127185088012
4.4,0.9138523411566803,-254.45407120412457
4.41,0.9055983756653937,165.76924250282192
4.42,0.9049781354839674,-253.0507337014552
4.43,0.9118484882628419,164.73199304432714
4.44,0.9223925713470869,-252.50160163519323
4.45,0.9295491888250811,165.55569114372005
4.46,0.9357993014225294,-254.02696848592083
4.47,0.9436238698651365,165.4031544586473
4.48,0.9486335020997325,-253.38631440861525
4.49,0.9483472374006127,165.6472131547637
4.5,0.9480132619183063,-253.4778364196589
4.51,0.941763149320858,165.5861984807346
4.52,0.9329366544313318,-252.98971902742608
4.53,0.9210089586346746,164.7014857073126
4.54,0.9117053559132821,-253.4168217456298
4.55,0.9062186158468198,165.6472131547637
4.56,0.9014952483113436,-253.78290978980442
4.57,0.8918576701076447,164.57945635925438
4.58,0.8842239447977841,-253.6608804417462
4.59,0.8789280478640684,165.43366179566183
4.6,0.8729641999657398,-252.68464565728056
4.61,0.8645671021248932,165.09808108850177
4.62,0.8621338521823751,-253.17276304951338
4.63,0.8599868669389769,165.1285884255163
4.64,0.8563131366336065,-252.98971902742608
4.65,0.8508263965671442,164.67097837029803
4.66,0.8459598966821081,-253.26428506055703
4.67,0.8422861663767378,164.91503706641444
4.68,0.8409025536643255,-253.14225571249884
4.69,0.8381830390226878,165.73873516580736
4.7,0.8366562939607156,-253.4778364196589
4.71,0.8334119607040249,164.6404710332835
4.72,0.828402328469429,-252.654138320266
4.73,0.8216751080401143,165.4031544586473
4.74,0.8209117355091282,-253.84392446383353
4.75,0.8233449854516462,164.27438298910886
4.76,0.8241083579826324,-253.538851093688
4.77,0.8221522158719806,164.73199304432714
4.78,0.8216751080401143,-253.2337777235425
4.79,0.8207686031595683,164.79300771835625
4.8,0.8204823384604486,-253.08124103846973
4.81,0.8212457109914346,164.945544403429
4.82,0.8207686031595683,-253.20327038652795
4.83,0.8172380052037579,165.1285884255163
4.84,0.8180013777347439,-252.654138320266
4.85,0.8346524410668772,165.15909576253088
4.86,0.8677637245983973,-253.08124103846973
4.87,0.9010181404794774,164.79300771835625
4.88,0.9298831643073875,-253.0507337014552
4.89,0.93918676702878,165.79974983983647
4.9,0.9207226939355548,-253.4168217456298
4.91,0.8772104596693497,164.27438298910886
4.92,0.8302153382305207,-253.6608804417462
4.93,0.8036881427787554,164.57945635925438
4.94,0.8004915203052513,-253.4168217456298
4.95,0.8059782603717136,165.52518380670548
4.96,0.8148047552612399,-252.92870435339697
4.97,0.8159021032745323,164.42691967418162
4.98,0.8242992011153789,-252.83718234235332
4.99,0.9613245704273756,164.57945635925438
5.0,1.3940613739300953,-253.44732908264436
5.01,1.989444237316031,164.67097837029803
5.02,1.8685928235043012,-253.2337777235425
5.03,0.8492996515051722,165.52518380670548
5.04,0.2957114341907228,-253.17276304951338
5.05,0.5401814872390067,164.8235150553708
5.06,0.7864168392651959,-252.7151529942951
5.07,0.8416659261953116,164.51844168522527
5.08,0.8462461613812279,-252.0744989169895
5.09,0.8552634994035007,165.0675737514872
5.1,0.8688133618285032,-253.50834375667344
5.11,0.8833174399172382,165.25061777357453
5.12,0.8978215180059732,-252.89819701638243
5.13,0.9086518657893379,165.86076451386558
5.14,0.9232990762276327,-252.89819701638243
5.15,0.9419062816704179,165.09808108850177
5.16,0.9625173400070414,-253.02022636444062
5.17,0.9877086335295812,165.98279386192377
5.18,1.023396299353179,-254.42356386711
5.19,1.0687215433804762,165.92177918789466
5.2,1.1300776105584802,-253.81341712681896
5.21,1.209086667515537,165.55569114372005
5.22,1.3041742584064873,-253.87443180084807
5.23,1.4016950992399557,165.4031544586473
5.24,1.487574508975887,-254.42356386711
5.25,1.550743585914983,165.98279386192377
5.26,1.5766982519685087,-253.6608804417462
5.27,1.536859748007674,164.945544403429
5.28,1.4273157898111752,-253.90493913786264
5.29,1.2812730824769056,166.19634522102564
5.3,1.1409079583418449,-253.38631440861525
5.31,1.023396299353179,165.18960309954542
5.32,0.9378031543163678,-253.7218951157753
5.33,0.8839376800986644,164.60996369626895
5.34,0.8555497641026205,-253.26428506055703
5.35,0.8387555684209272,165.43366179566183
5.36,0.8294519656995347,-253.0507337014552
5.37,0.8286885931685487,165.6472131547637
5.38,0.8358929214297296,-253.2947923975716
5.39,0.8438129114387098,164.76250038134168
5.4,0.8503492887352779,-253.84392446383353
5.41,0.8545001268725146,164.8235150553708
5.42,0.8554066317530605,-254.02696848592083
5.43,0.8529733818105425,165.70822782879281
5.44,0.848536278974186,-252.7761676683242
5.45,0.8381830390226878,165.52518380670548
5.46,0.8288794363012952,-253.26428506055703
5.47,0.8220090835224207,165.70822782879281
5.48,0.813755118031134,-254.1795051709936
5.49,0.801684289884917,165.34213978461818
5.5,0.7928577949953908,-253.4778364196589
5.51,0.784603829504104,165.89127185088012
5.52,0.7771132365438034,-252.80667500533875
5.53,0.7685730063533969,165.49467646969094
5.54,0.765233251530333,-253.538851093688
5.55,0.7644698789993468,165.18960309954542
5.56,0.7607961486939765,-253.2947923975716
5.57,0.7510154381407177,165.49467646969094
5.58,0.7434294236140437,-253.38631440861525
5.59,0.7388491884281274,165.49467646969094
5.6,0.7362250953528628,-254.2405198450227
5.61,0.7324082326979325,165.49467646969094
5.62,0.7301181151049744,-253.56935843070255
5.63,0.7301181151049744,165.5861984807346
5.64,0.7287822131757488,-253.32529973458614
5.65,0.720671380034022,165.28112511058907
5.66,0.7174747575605179,-253.81341712681896
5.67,0.7220549927464343,165.25061777357453
5.68,0.7228183652774203,-253.4168217456298
5.69,0.7127513900250416,166.04380853595288
5.7,0.7055470617638607,-252.44058696116414
5.71,0.705260797064741,164.7014857073126
5.72,0.7057379048966073,-252.86768967936786
5.73,0.7038771843523288,164.945544403429
5.74,0.7023504392903567,-252.7761676683242
5.75,0.7020641745912369,165.31163244760364
5.76,0.703590919653209,-253.75240245278988
5.77,0.7026844147726631,165.49467646969094
5.78,0.7058810372461671,-252.5321089722078
5.79,0.7217210172641279,165.31163244760364
5.8,0.753925795915102,-253.17276304951338
5.81,0.78551033438465,164.6404710332835
5.82,0.815424995442666,-253.9964611489063
5.83,0.8337459361863313,165.28112511058907
5.84,0.8268755834074568,-253.56935843070255
5.85,0.7925238195130844,165.1285884255163
5.86,0.7421889432511913,-253.2337777235425
5.87,0.706167301945287,165.22011043655996
5.88,0.7065012774275934,-252.86768967936786
5.89,0.7141350027374539,164.91503706641444
5.9,0.7212916202154481,-253.56935843070255
5.91,0.7307383552864005,165.4641691326764
5.92,0.7342689532422111,-254.02696848592083
5.93,0.8213888433409945,164.8845297293999
5.94,1.1439614484657892,-254.1795051709936
5.95,1.7407279245641372,165.52518380670548
5.96,1.9265614250760548,-253.75240245278988
5.97,1.0777388814027489,165.73873516580736
5.98,0.30243865462003744,-253.4778364196589
5.99,0.3958086573162692,165.22011043655996
6.0,0.6921403316884182,-253.32529973458614
6.01,0.8006346526548112,164.67097837029803
6.02,0.8225816129206602,-253.538851093688
6.03,0.8418090585448715,166.01330119893834
6.04,0.8572196415141524,-252.22703560206227
6.05,0.8686702294789432,165.34213978461818
6.06,0.8856075575101964,-253.7218951157753
6.07,0.9091289736212042,164.945544403429
6.08,0.9320301495507858,-254.08798315994994
6.09,0.9478701295687464,164.57945635925438
6.1,0.9710575701974479,-252.98971902742608
6.11,1.0050753586095138,165.52518380670548
6.12,1.0417172400968444,-253.26428506055703
6.13,1.0821759842391054,165.92177918789466
6.14,1.1461084337091874,-253.56935843070255
6.15,1.2290774856707343,165.15909576253088
6.16,1.3240219442121248,-253.11174837548427
6.17,1.425932177098763,165.37264712163272
6.18,1.5210197679897133,-252.7151529942951
6.19,1.595019192712174,164.8845297293999
6.2,1.638054319146513,-253.0507337014552
6.21,1.627510236062268,164.7014857073126
6.22,1.5429667282555624,-253.0507337014552
6.23,1.4033649766514877,166.1658378840111
6.24,1.2594692545606165,-254.1795051709936
6.25,1.1286939978460682,164.42691967418162
6.26,1.0319365295435856,-253.78290978980442
6.27,0.9748744328523781,165.28112511058907
6.28,0.9426696542014039,-253.75240245278988
6.29,0.9196253459222624,165.52518380670548
6.3,0.9071251207273657,-253.38631440861525
6.31,0.9019246453600233,164.60996369626895
6.32,0.9005887434307976,-253.38631440861525
6.33,0.9063617481963797,164.97605174044355
6.34,0.9221063066479671,-252.89819701638243
6.35,0.9275930467144293,164.73199304432714
6.36,0.9275930467144293,-253.0507337014552
6.37,0.9306465368383736,164.76250038134168
6.38,0.9314099093693596,-252.98971902742608
6.39,0.9283564192454155,164.7014857073126
6.4,0.9303125613560672,-252.2575429390768
6.41,0.9278793114135491,165.1285884255163
6.42,0.919816189055009,-253.4168217456298
6.43,0.9137092088071205,164.97605174044355
6.44,0.9115622235637222,-252.5931236462369
6.45,0.9048350031344076,165.28112511058907
6.46,0.9017815130104634,-252.5321089722078
6.47,0.9011612728290372,165.15909576253088
6.48,0.8996345277670651,-252.7151529942951
6.49,0.8975352533068535,164.76250038134168
6.5,0.8953882680634552,-252.98971902742608
6.51,0.8932412828200569,164.7014857073126
6.52,0.8949111602315889,-253.538851093688
6.53,0.8943386308333493,165.22011043655996
6.54,0.8937183906519232,-252.5931236462369
6.55,0.893861523001483,164.85402239238536
6.56,0.8920485132403911,-253.2337777235425
6.57,0.8935752583023633,165.15909576253088
6.58,0.8967718807758674,-253.4778364196589
6.59,0.8900446603465528,165.49467646969094
6.6,0.894768027882029,-253.56935843070255
6.61,0.9021154884927698,165.09808108850177
6.62,0.8990619983688256,-252.68464565728056
6.63,0.8928118857713773,165.18960309954542
6.64,0.894004655351043,-253.56935843070255
6.65,0.9057415080149536,164.8845297293999
6.66,0.9353699043738498,-253.0507337014552
6.67,0.9750175652019379,164.27438298910886
6.68,1.0088922212644442,-252.80667500533875
6.69,1.035610259848956,165.03706641447266
6.7,1.053454092760755,-252.9592116904115
6.71,1.0450569949199084,164.73199304432714
6.72,0.9961057313704277,-253.56935843070255
6.73,0.9380894190154876,164.8845297293999
6.74,0.923012811528513,-253.02022636444062
6.75,0.9284995515949753,164.4574270111962
6.76,0.9298831643073875,-252.62363098325145
6.77,0.9323164142499055,165.00655907745812
6.78,0.9289766594268416,-252.92870435339697
6.79,0.9295491888250811,163.9998169559779
6.8,1.0583683034289777,-253.11174837548427
6.81,1.4893875187369787,164.54894902223984
6.82,2.0723178677112046,-252.41007962414957
6.83,1.9171146900051024,164.33539766313797
6.84,0.9565534921087128,-252.47109429817868
6.85,0.4547314745517553,164.48793434821073
6.86,0.65673893056394,-252.28805027609138
6.87,0.8998253708998116,164.67097837029803
6.88,0.9864681531667288,-251.86094755788764
6.89,1.0038825890298482,164.6404710332835
6.9,1.0222035297735135,-252.04399157997497
6.91,1.0383774852737806,163.9388022819488
6.92,1.0533109604111952,-252.5931236462369
6.93,1.0714887688053005,164.54894902223984
6.94,1.090716214429512,-251.8304402208731
6.95,1.1065561944474724,163.9998169559779
6.96,1.1251633998902575,-252.74566033130967
6.97,1.148207708169399,163.75575825986147
6.98,1.1865194670682617,-252.0744989169895
6.99,1.2290774856707343,164.42691967418162
7.0,1.2756432100608834,-252.68464565728056
7.01,1.3398619242300853,163.90829494493423
7.02,1.4246916967359107,-252.5321089722078
7.03,1.5254091600428832,163.96930961896334
7.04,1.6264128880489754,-252.74566033130967
7.05,1.711099528205241,164.03032429299245
7.06,1.7771789629187213,-252.5931236462369
7.07,1.7971697810739187,164.60996369626895
7.08,1.7477414096925716,-252.5321089722078
7.09,1.6311839663676384,162.77952347539582
7.1,1.4795113866173466,-252.22703560206227
7.11,1.331035429340559,163.96930961896334
7.12,1.2173406330068237,-252.2575429390768
7.13,1.1434843406339228,164.03032429299245
7.14,1.0905253712967653,-252.92870435339697
7.15,1.0578911955971115,163.02358217151223
7.16,1.0488738575748386,-252.37957228713503
7.17,1.045247838052655,163.176118856585
7.18,1.0431008528092567,-252.74566033130967
7.19,1.0415741077472846,164.7014857073126
7.2,1.049494097756265,-252.04399157997497
7.21,1.0585114357785377,163.14561151957045
7.22,1.0586545681280977,-252.56261630922234
7.23,1.0548377054731672,163.2981482046432
7.24,1.052070480048343,-251.98297690594586
7.25,1.0470608478137469,163.176118856585
7.26,1.0442936223889223,-251.73891820982945
7.27,1.038186642141034,163.69474358583238
7.28,1.0293601472515077,-252.654138320266
7.29,1.020342809229235,163.26764086762864
7.3,1.0131861917512408,-251.5863815247567
7.31,1.0067929468042325,163.2981482046432
7.32,1.0058387311405,-252.04399157997497
7.33,0.998252716613826,163.20662619359953
7.34,0.9855616482861829,-251.37283016565482
7.35,0.9768782857462165,163.69474358583238
7.36,0.9762580455647903,-251.1287714695384
7.37,0.9713915456797543,163.54220690075962
7.38,0.9614677027769355,-252.34906495012046
7.39,0.9536908451175151,163.57271423777416
7.4,0.9550267470467407,-252.62363098325145
7.41,0.954597349998061,163.84728027090515
7.42,0.9482041050510528,-251.70841087281488
7.43,0.942526521851844,163.38967021568686
7.44,0.9419062816704179,-252.74566033130967
7.45,0.942526521851844,163.26764086762864
7.46,0.9350359288915434,-252.2575429390768
7.47,0.9208658262851147,163.57271423777416
7.48,0.9147588460372263,-251.40333750266936
7.49,0.910941983382296,163.60322157478873
7.5,0.9062186158468198,-251.43384483968393
7.51,0.908508733439778,163.60322157478873
7.52,0.9303125613560672,-251.769425546844
7.53,0.9608474625955093,163.69474358583238
7.54,0.9884720060605672,-252.50160163519323
7.55,1.0102758339768563,163.26764086762864
7.56,1.0159534171760651,-251.9524695689313
7.57,0.9948652510075754,163.78626559687604
7.58,0.9475838648696266,-251.769425546844
7.59,0.8973921209572936,164.60996369626895
7.6,0.8758745577401241,-251.37283016565482
7.61,0.8647102344744532,163.63372891180327
7.62,0.8579830140451385,-252.04399157997497
7.63,0.8563131366336065,162.32191342017754
7.64,0.8572196415141524,-251.70841087281488
7.65,0.876017690089684,163.45068488971597
7.66,1.0246367797160316,-251.03724945849473
7.67,1.4702077838959542,163.9998169559779
7.68,2.035389721524754,-251.73891820982945
7.69,1.8090974768705756,162.87104548643947
7.7,0.7986307997609727,-251.03724945849473
7.71,0.339987040987914,163.51169956374505
7.72,0.6002970740541586,-250.884712773422
7.73,0.8268755834074568,162.7185088013667
7.74,0.8817906948552661,-250.94572744745108
7.75,0.8910942975766586,163.32865554165775
7.76,0.9034513904219954,-251.79993288385853
7.77,0.9153790862186525,162.9930748344977
7.78,0.9286426839445352,-251.8304402208731
7.79,0.9361332769048358,162.6574941273376
7.8,0.9436238698651365,-249.99999999999997
7.81,0.9573168646396989,162.93206016046858
7.82,0.9753515406842443,-251.43384483968393
7.83,0.9954854911890015,162.5964794533085
7.84,1.0254001522470175,-250.3050733701455
7.85,1.0603244455396295,163.69474358583238
7.86,1.1103730571024029,-250.79319076237832
7.87,1.1747826144043512,163.11510418255588
7.88,1.2528851664808618,-251.0677567955093
7.89,1.3470662524912662,163.08459684554134
7.9,1.451743710802729,-251.3118154916257
7.91,1.5411537184944706,163.54220690075962
7.92,1.600935329827316,-251.2508008175966
7.93,1.6116225452611208,162.50495744226484
7.94,1.5574708063442975,-250.884712773422
7.95,1.4357128876520218,162.32191342017754
7.96,1.2818933226583318,-249.6644192928399
7.97,1.1357074829745024,163.08459684554134
7.98,1.0272131620081095,-251.28130815461117
7.99,0.9533568696352087,161.98633271301748
8.0,0.9054552433158338,-251.0677567955093
8.01,0.8798345527446143,163.08459684554134
8.02,0.8700538421913555,-250.67116141432012
8.03,0.8606071071204031,162.4134354312212
8.04,0.8551203670539408,-250.82369809939289
8.05,0.8558837395849269,161.83379602794471
8.06,0.8625632492310549,-251.09826413252384
8.07,0.8731073323152997,162.35242075719208
8.08,0.8830311752181185,-251.2508008175966
8.09,0.8863709300411824,162.10836206107567
8.1,0.8853212928110766,-250.67116141432012
8.11,0.8828880428685585,162.32191342017754
8.12,0.8812181654570266,-251.46435217669847
8.13,0.8723439597843137,162.68800146435217
8.14,0.8628972247133613,-250.45761005521825
8.15,0.8524962739786762,162.32191342017754
8.16,0.8425724310758576,-251.3118154916257
8.17,0.8341753332350109,162.4744501052503
8.18,0.8267324510578969,-251.22029348058206
8.19,0.8163315003232119,162.44394276823576
8.2,0.8071710299513792,-251.1897861435675
8.21,0.8009209173539309,162.2303914091339
8.22,0.7960544174688948,-250.94572744745108
8.23,0.7859874422165163,162.291406083163
8.24,0.7750139620835917,-251.1897861435675
8.25,0.769336378884383,162.84053814942493
8.26,0.7728669768401935,-250.85420543640743
8.27,0.7773040796765499,161.98633271301748
8.28,0.7784968492562157,-250.57963940327647
8.29,0.7754433591322714,162.26089874614843
8.3,0.7739166140702993,-251.1287714695384
8.31,0.7723898690083272,162.01684005003202
8.32,0.7696703543666894,-251.03724945849473
8.33,0.7635633741188009,161.98633271301748
8.34,0.7600327761629904,-250.5491320662619
8.35,0.7559296488089403,161.92531803898837
8.36,0.7512062812734641,-251.2508008175966
8.37,0.749822668561052,162.07785472406113
8.38,0.7521127861540101,-251.22029348058206
8.39,0.7528761586849961,162.5354647792794
8.4,0.7653763838798928,-250.85420543640743
8.41,0.7948139371060425,162.5964794533085
8.42,0.8296428088322813,-250.5491320662619
8.43,0.861513612000949,161.10161993959545
8.44,0.8816475625057062,-251.15927880655295
8.45,0.8701969745409154,161.92531803898837
8.46,0.8313126862438133,-249.90847798895632
8.47,0.7825999766102656,161.58973733182827
8.48,0.7501089332601717,-250.91522011043654
8.49,0.7386583452953809,161.7117666798865
8.5,0.7398988256582332,-250.15253668507273
8.51,0.7417118354193251,162.16937673510478
8.52,0.7440019530122832,-251.2508008175966
8.53,0.7475325509680938,162.87104548643947
8.54,0.8422861663767378,-250.4881173922328
8.55,1.1706317762671143,162.35242075719208
8.56,1.7809958255736515,-250.3660880441746
8.57,1.97389052199719,161.55922999481373
8.58,1.0951056064826816,-251.37283016565482
8.59,0.2827341011639599,161.28466396168278
8.6,0.38712529477630286,-250.33558070716003
8.61,0.6926174395202844,161.49821532078462
8.62,0.7907108097519925,-249.87797065194175
8.63,0.8053580201902873,162.38292809420665
8.64,0.8198620982790225,-250.24405869611638
8.65,0.8313126862438133,162.35242075719208
8.66,0.8467232692130943,-250.27456603313095
8.67,0.8595097591071106,161.55922999481373
8.68,0.8709603470719014,-249.81695597791267
8.69,0.8865140623907423,161.2541566246682
8.7,0.9072682530769256,-250.0305073370145
8.71,0.9305034044888136,162.32191342017754
8.72,0.9587004773521111,-249.48137527075258
8.73,0.9913823638349515,162.38292809420665
8.74,1.0343697794861038,-250.1220293480582
8.75,1.0905253712967653,162.01684005003202
8.76,1.1674351537936103,-250.39659538118914
8.77,1.2635723819146665,161.86430336495926
8.78,1.3682498402261292,-249.51188260776715
8.79,1.4636236958161994,161.55922999481373
8.8,1.537002880357234,-249.7864486408981
8.81,1.5750283745569766,161.86430336495926
8.82,1.5550375564017795,-250.21355135910184
8.83,1.4585663527984167,162.07785472406113
8.84,1.3136209934774397,-249.3593459226944
8.85,1.1642385313201062,162.16937673510478
8.86,1.0369938725613683,-249.14579456359252
8.87,0.9423833895022842,161.31517129869732
8.88,0.8828880428685585,-250.0305073370145
8.89,0.8471526662617739,160.85756124347904
8.9,0.8294519656995347,-250.33558070716003
8.91,0.8222953482215405,161.22364928765367
8.92,0.8241083579826324,-248.93224320449065
8.93,0.8305493137128271,162.77952347539582
8.94,0.8364654508279691,-249.75594130388356
8.95,0.8424292987262977,162.07785472406113
8.96,0.8511126612662641,-249.75594130388356
8.97,0.8581738571778851,161.04060526556634
8.98,0.8635174648947874,-249.23731657463617
8.99,0.8647102344744532,161.37618597272643
9.0,0.8612273473018293,-249.29833124866528
9.01,0.8541661513902082,161.68125934287195
9.02,0.8473435093945204,-250.39659538118914
9.03,0.8393758086023534,162.04734738704656
9.04,0.831598950942933,-248.96275054150522
9.05,0.8238220932835126,161.0100979285518
9.06,0.819528122796716,-249.11528722657798
9.07,0.8148047552612399,162.19988407211932
9.08,0.8109878926063095,-249.63391195582534
9.09,0.803354167296449,161.04060526556634
9.1,0.7955773096370286,-249.29833124866528
9.11,0.7904245450528727,161.34567863571186
9.12,0.783077084442132,-249.75594130388356
9.13,0.7742505895526057,160.8270539064645
9.14,0.7737734817207393,-249.81695597791267
9.15,0.7732963738888731,160.79654656944993
9.16,0.7678096338224109,-249.87797065194175
9.17,0.7607961486939765,161.2541566246682
9.18,0.7598896438134305,-249.6644192928399
9.19,0.7582197664018985,161.10161993959545
9.2,0.7573132615213526,-250.884712773422
9.21,0.7565498889903666,160.09487781811524
9.22,0.7534963988664223,-248.74919918240334
9.23,0.749822668561052,160.91857591750815
9.24,0.7519696538044502,-248.81021385643245
9.25,0.7534963988664223,161.34567863571186
9.26,0.7531624233841159,-249.57289728179626
9.27,0.753019291034556,160.36944385124622
9.28,0.7548323007956479,-249.48137527075258
9.29,0.7545460360965281,161.22364928765367
9.3,0.7575995262204723,-249.87797065194175
9.31,0.7716264964773412,161.46770798377008
9.32,0.8006346526548112,-249.48137527075258
9.33,0.8319329264252394,160.67451722139174
9.34,0.8650442099567596,-249.6034046188108
9.35,0.8856075575101964,160.73553189542082
9.36,0.8747772097268317,-249.51188260776715
9.37,0.8345093087173173,160.88806858049358
9.38,0.7823137119111458,-249.48137527075258
9.39,0.7438588206627234,160.4914731993044
9.4,0.7348414826404506,-249.45086793373804
9.41,0.7373224433661553,161.13212727661002
9.42,0.7414255707202053,-249.63391195582534
9.43,0.7417118354193251,160.64400988437717
9.44,0.7389923207776873,-249.17630190060706
9.45,0.8256351030446044,161.22364928765367
9.46,1.1486848160012653,-248.44412581225782
9.47,1.759621394706042,160.97959059153726
9.48,1.9722206445856583,-248.62716983434512
9.49,1.1084169149917509,160.73553189542082
9.5,0.2874574686994361,-248.96275054150522
9.51,0.3761518146433783,161.37618597272643
9.52,0.6797832388430814,-249.45086793373804
9.53,0.7823137119111458,161.34567863571186
9.54,0.8015411575353572,-249.05427255254887
9.55,0.8159021032745323,160.61350254736263
9.56,0.8290225686508551,-249.29833124866528
9.57,0.8345093087173173,160.4914731993044
9.58,0.8456259211998017,-249.05427255254887
9.59,0.8682408324302636,160.85756124347904
9.6,0.8903309250456726,-249.05427255254887
9.61,0.9065048805459396,160.03386314408613
9.62,0.9297400319578276,-248.6576771713597
9.63,0.9585573450025512,160.85756124347904
9.64,0.9898556187729795,-249.17630190060706
9.65,1.0313640001453461,159.97284847005704
9.66,1.090716214429512,-248.62716983434512
9.67,1.1691050312051423,159.91183379602793
9.68,1.2660056318571846,-248.74919918240334
9.69,1.3685838157084356,160.70502455840628
9.7,1.461619842922361,-249.11528722657798
9.71,1.5324226451713177,161.37618597272643
9.72,1.5776047568490548,-248.56615516031604
9.73,1.565867904185144,160.58299521034806
9.74,1.4772212690243884,-248.56615516031604
9.75,1.3339457871149434,160.85756124347904
9.76,1.1840862171257436,-248.840721193447
9.77,1.0563644505351395,160.15589249214435
9.78,0.9626604723566012,-249.4203605967235
9.79,0.8998253708998116,160.61350254736263
9.8,0.8640899942930269,-248.44412581225782
9.81,0.84366977908915,160.33893651423165
9.82,0.8328394313057853,-248.87122853046154
9.83,0.8281160637703091,160.00335580707159
9.84,0.8317420832924929,-248.77970651941789
9.85,0.8381830390226878,159.78980444796971
9.86,0.8514466367485705,-248.77970651941789
9.87,0.863946861943467,161.1931419506391
9.88,0.8692904696603695,-248.56615516031604
9.89,0.8718668519524474,160.3084291772171
9.9,0.8737275724967258,-248.3220964641996
9.91,0.8715805872533277,160.36944385124622
9.92,0.8668572197178513,-248.56615516031604
9.93,0.8636605972443473,159.85081912199882
9.94,0.8597006022398571,-247.98651575703954
9.95,0.8482500142750663,160.4914731993044
9.96,0.8387555684209272,-247.956008420025
9.97,0.8375627988412616,160.21690716617346
9.98,0.8383261713722476,-248.96275054150522
9.99,0.831598950942933,160.33893651423165
