time_s,ECG1,ECG2,NIBP
0.0,0.07611461090540121,0.054781537077058934,84.21613054885029
0.01,-0.01843606492518368,-0.03496022804607703,82.85651373190096
0.02,-0.019015484108546598,-0.012955421080225628,82.35295194784564
0.03,-0.05035679448135886,-0.05000210270851128,82.15152723422352
0.04,-0.04688027938118137,-0.008903819356634467,82.05997054621346
0.05,-0.04688027938118137,-0.034377961930111826,81.92721334859888
0.06,-0.03934782999746346,-0.007739287124704074,81.66856570497048
0.07,-0.0845952007709857,-0.08011011312154499,81.44425181934584
0.08,-0.052674471214810524,-0.017589288919781988,81.05055806090259
0.09,-0.08807171587116319,-0.07896984197777981,80.81479958927669
0.1,0.005899540776058779,-0.030908626322485862,80.53555169084602
0.11,-0.008585938808014115,-0.15827933918987266,80.37761640402867
0.12,-0.037030153264011795,0.02525579277999041,80.19908086240906
0.13,0.33016358557443237,0.4867259507705741,80.06403474759423
0.14,0.6057037444991062,0.9979798616761821,79.96332239078316
0.15,0.3910552742987533,0.14859916501195128,79.81683168996707
0.16,-0.0445626026477297,-0.09689878613187483,79.56962863233993
0.17,-0.3107793801673821,-0.12586652540114338,79.3018253199105
0.18,-0.24293466124270613,-0.047697299332815704,79.0431776762821
0.19,-0.1141455791224944,-0.06911984018270191,78.88524238946475
0.2,-0.017277226558457853,-0.014119953312156023,78.68381767584262
0.21,-0.019015484108546598,-0.05754730112789362,78.49383754822176
0.22,0.01111431342632502,0.010796184233521357,78.1573667197848
0.23,-0.006268262074562452,-0.03842956365370299,77.93305283416016
0.24,0.01111431342632502,-0.00021834979348694881,77.88727449015514
0.25,-0.016697807375094936,-0.059269838387623994,77.77511754734282
0.26,0.02623188666497564,0.007884853653695373,77.53935907571692
0.27,0.012273151793050852,-0.03842956365370299,77.21433283328122
0.28,0.06568506560486873,0.03857513018269429,76.85497283284174
0.29,0.024493629114886895,-0.03554249416204222,76.57343601721082
0.3,0.07437635335531245,0.03685259292296392,76.36056671758745
0.31,0.047670396449403525,-0.028579561858625077,76.38345588958995
0.32,0.10276789334009533,0.05014766923750257,76.78859423403445
0.33,0.08886183293938535,0.014265519841147321,78.18941156058833
0.34,0.11440895147856846,0.05419927096109373,81.1398258317124
0.35,0.10218847415673242,-0.0013828820254173425,85.4269677477833
0.36,0.16892702918589733,0.0918524797935098,90.46487450553666
0.37,0.13642688044635926,0.024091260548060017,95.60349362010108
0.38,0.1602357414354536,0.08663634583798824,100.12639400779787
0.39,0.18457134713669607,0.07853314239080592,103.63759299298354
0.4,0.2263422028100408,0.14221849882449933,106.24009184966941
0.41,0.23213639464366997,0.09473954928517056,107.66608726542604
0.42,0.2814396997007326,0.17812490930901978,108.19253822148386
0.43,0.27274841195028887,0.14047170047660373,108.18109363548261
0.44,0.2576835131828531,0.15379103787930762,107.79884446304062
0.45,0.2298187179102183,0.12079595797461312,107.13734739216795
0.46,0.18746844305351065,0.11152822229550041,106.21720267766689
0.47,0.12194140086228636,0.037410597950763895,105.2650131223623
0.48,0.0906000904894741,0.054781537077058934,104.48907019147707
0.49,0.05694110338321017,0.0009461824384434448,103.89624063661196
0.5,0.06447355276692808,0.041462199674355056,103.36750076335387
0.51,0.009955475059599189,-0.048279565448780905,102.96465133610963
0.52,0.025652467481612724,0.006162316393965,102.5045789788591
0.53,-0.009165357991377032,-0.041898899261328955,101.99872827760353
0.54,0.03318491686533063,0.014265519841147321,101.538655920353
0.55,0.0035818640426071155,-0.04248116537729415,101.06713897710121
0.56,0.023914209931523978,0.0009461824384434448,100.57502177904715
0.57,0.04071736624904854,-0.020476358411442755,99.86774636416946
0.58,0.020437694831346484,-0.004852217633043307,98.91326789166463
0.59,-0.0027917469743849576,-0.05463597054806763,97.66809693472786
0.6,0.035502593598782294,0.009631652001590964,96.1299445761589
0.61,0.013431990159776683,-0.0268570245988947,94.49336877797914
0.62,0.03028782094851605,0.010796184233521357,92.50658864816091
0.63,0.04245562379913728,-0.0060167498649737,90.89061310478341
0.64,0.06684390397159455,0.024673526664025214,89.99335756228487
0.65,0.10624440844027282,-0.026274758482929508,89.62255297584413
0.66,0.17356238265280066,0.02353325552026004,89.71410966385419
0.67,0.1776183169363411,-0.05000210270851128,90.07118074709341
0.68,0.31973404027389984,0.03799286406672909,90.55414227634647
0.69,0.5569798586254064,0.09415728316920537,90.89061310478341
0.7,1.0604951289677802,0.3836648482447343,91.07143756360328
0.71,1.4624540188079993,0.5145048967197471,91.1835945064156
0.72,1.6706762035201452,0.5040968898968692,91.21563934721912
0.73,1.7634886218006414,0.36745844135036965,91.1835945064156
0.74,1.9694458042505507,0.4085567247022464,91.11492699040805
0.75,2.139373648389529,0.4004535212550641,90.97072520679222
0.76,2.2119063952523232,0.428232467204237,90.67774380516003
0.77,2.1451678402231584,0.41724219426539394,90.26344979191452
0.78,1.9299926253106576,0.38133578378087346,89.81482202066526
0.79,1.3191794571037148,0.19316678397145404,89.38679450421824
0.8,0.4955087507177226,0.09590408151710096,89.0068342489765
0.81,-0.1396926976616775,-0.05058436882447647,88.59025131853075
0.82,-0.324158695855944,-0.0812746453534754,88.17595730528524
0.83,-0.3850503845802649,-0.09575851498810965,87.73877412003722
0.84,-0.4210270484199805,-0.06506823845911075,87.32219118959146
0.85,-0.4888717673446565,-0.12991812712473455,86.94223093434972
0.86,-0.51847482016738,-0.09864558447977043,86.69502787672258
0.87,-0.5660398676743539,-0.13743906445595166,86.39289080628939
0.88,-0.6130254959979649,-0.10791332015888314,86.04497539185118
0.89,-0.6675435737052937,-0.14670680013506437,85.6627262194092
0.9,-0.7052584950950981,-0.10907785239081354,85.2804770469672
0.91,-0.7301735199797035,-0.14090840006357763,84.91196137772673
0.92,-0.792276721541965,-0.12700679654490857,84.541156791286
0.93,-0.7829533401369436,-0.13860359668788205,84.18179679084652
0.94,-0.846215380065931,-0.08069237923751019,83.85677054841082
0.95,-0.9656810807811214,-0.13050039324069973,83.58667831878115
0.96,-1.0428491811108187,-0.10849558627484834,83.339475261154
0.97,-1.1310262459244116,-0.16116640868153342,83.1838288915369
0.98,-1.1809089701648372,-0.13918586280384726,83.28454124834796
0.99,-1.228474017671811,-0.16002613753776826,83.9803720772244
1.0,-1.1971327072989988,-0.07605851139795383,85.51623551859309
1.01,-1.140876372041581,-0.07200690967436267,87.83948647684828
1.02,-1.0596523374283433,-0.011790888848295236,90.622809792354
1.03,-0.9233308059244136,-0.005434483749008503,93.65104724828663
1.04,-0.7893796256251505,0.05189446758539817,96.4458151497936
1.05,-0.6634876394217534,0.019481653796668878,98.91326789166463
1.06,-0.5138394667004766,0.05247673370136336,100.81078025067305
1.07,-0.41523285658635134,-0.0013828820254173425,101.89801592079247
1.08,-0.31662624647222604,0.015988057100877695,102.39242203604678
1.09,-0.2556818832766903,-0.026274758482929508,102.38097745004552
1.1,-0.15881353071265372,0.021786457172364448,101.96439451959976
1.11,-0.14548688949530666,-0.04306343149325935,101.13580649310875
1.12,-0.11762209422267189,-0.02280542287530354,100.0027924789843
1.13,-0.07585123854932715,-0.03842956365370299,98.72328776404376
1.14,-0.06136575896525426,-0.014677958339956002,97.21946916347858
1.15,-0.07938042812071945,-0.07375370802225827,95.63782737810486
1.16,-0.05093621366472177,-0.011208622732330038,93.83187170710649
1.17,-0.049777375297995946,-0.06273917399524996,91.87942533529203
1.18,-0.049197956114633026,-0.0274392907148599,89.78048826266148
1.19,-0.04688027938118137,-0.05405370443210244,87.72732953403596
1.2,-0.02307141839208701,-0.01700702280381679,86.06557564665344
1.21,-0.017856645741820765,-0.06215690787928476,84.83184927571793
1.22,-0.02828619104235325,-0.014677958339956002,84.14746303284275
1.23,-0.0022123277910220417,-0.03032636020652067,83.85677054841082
1.24,-0.01843606492518368,-0.029161827974590274,83.94603831922063
1.25,-0.01843606492518368,-0.06215690787928476,84.28250914765759
1.26,-0.009744777174739946,-0.022223156759338347,84.8089601037154
1.27,-0.013800711458280357,-0.05868757227165879,85.37203373497726
1.28,-0.004530004524473705,-0.0268570245988947,85.82981717502754
1.29,0.009376055876236272,-0.0366827653058074,86.14568774866224
1.3,0.005320121592695863,-0.019894092295477558,86.32422329028185
1.31,0.029128982581790218,-0.01931182617951236,86.37000163428688
1.32,0.005899540776058779,-0.01700702280381679,86.42493564709291
1.33,0.006478959959421694,-0.04306343149325935,86.5050477491017
1.34,-0.0033711661577478735,-0.020476358411442755,86.44782481909543
1.35,-0.010324196358102862,-0.05347143831613724,86.23495551947204
1.36,-0.01322129227491744,-0.03379569581414663,85.93281844903886
1.37,0.018699437281257735,-0.03496022804607703,85.65128163340793
1.38,-0.003950585341110789,-0.012955421080225628,85.33769997697348
1.39,0.004740702409332947,-0.048279565448780905,85.05616316134257
1.4,0.014011409343139599,-0.011790888848295236,84.78835984891315
1.41,0.012273151793050852,-0.032048897466251045,84.48393386127971
1.42,0.00705837914278461,-0.013537687196190825,84.18179679084652
1.43,0.00705837914278461,-0.05291343328833726,83.84532596240956
1.44,-0.011483034724828693,-0.041316633145363754,83.53174430597512
1.45,-0.025968514308901586,-0.07838757586181462,83.22731831834169
1.46,-0.03934782999746346,-0.07547624528198864,82.89084748990473
1.47,-0.0555715671316251,-0.1119649218824743,82.55437666146777
1.48,-0.04398318346436678,-0.06911984018270191,82.22935041903207
1.49,-0.05151563284808469,-0.10616652181098755,81.9592581894024
1.5,-0.03818899163073763,-0.0795278470055798,81.62278736096545
1.51,-0.05499214794826218,-0.11021812353457872,81.23138251972244
1.52,-0.03934782999746346,-0.06911984018270191,80.79419933447443
1.53,-0.052674471214810524,-0.12006812532965662,80.47832876083973
1.54,-0.048039117747907194,-0.0702843724146323,80.25401487521509
1.55,-0.033553638163834304,-0.08649077930899694,80.04114557559171
1.56,-0.06542169324879467,-0.08996011491662291,79.7824979319633
1.57,-0.049197956114633026,-0.10616652181098755,79.50325003353264
1.58,-0.07179530426578674,-0.10095038785546599,79.25604697590548
1.59,-0.056730405498350935,-0.1113826557665091,79.02028850427958
1.6,-0.05035679448135886,-0.07200690967436267,78.85090863146098
1.61,-0.0555715671316251,-0.09401171664021407,78.67237308984137
1.62,-0.07469240018260132,-0.09981011671170081,78.459503790218
1.63,-0.041665506730915125,-0.09170691326451849,78.2466344905946
1.64,-0.06368343569870592,-0.08416171484513615,78.05436544577348
1.65,-0.048618536931270113,-0.09342945052424888,77.91016366215764
1.66,-0.070057046715698,-0.08879558268469251,77.7522283753403
1.67,-0.06194517814861717,-0.11080038965054391,77.59429308852295
1.68,-0.052674471214810524,-0.08069237923751019,77.47298047690963
1.69,-0.06252459733198008,-0.10907785239081354,77.3379343620948
1.7,-0.07527181936596423,-0.08765531154092733,77.21433283328122
1.71,-0.07179530426578674,-0.11426972525816988,77.03350837446136
1.72,-0.07353356181587549,-0.10095038785546599,76.83208366083923
1.73,-0.04282434509764096,-0.07375370802225827,76.57343601721082
1.74,-0.06484227406543175,-0.08416171484513615,76.36056671758745
1.75,-0.056730405498350935,-0.10500198957905715,76.20492034797034
1.76,-0.06252459733198008,-0.08416171484513615,76.09276340515802
1.77,-0.056730405498350935,-0.08590851319303175,75.96916187634444
1.78,-0.06542169324879467,-0.08243917758540578,75.7448479907198
1.79,-0.05788924386507677,-0.10500198957905715,75.59835728990372
1.8,-0.06715995079888341,-0.08357944872917096,75.46331117508889
1.81,-0.03645073408064888,-0.08765531154092733,75.30537588827154
1.82,-0.06368343569870592,-0.08649077930899694,75.13828493265318
1.83,-0.049777375297995946,-0.09170691326451849,74.94830480503232
1.84,-0.06252459733198008,-0.08937784880065772,74.71254633340642
1.85,-0.02828619104235325,-0.07722304362988423,74.50883270258404
1.86,-0.041665506730915125,-0.05754730112789362,74.31885257496317
1.87,-0.021912580025361176,-0.07258917579032786,74.21814021815212
1.88,-0.01322129227491744,-0.07375370802225827,74.11742786134106
1.89,0.06626448478823163,-0.045950500984920116,73.99382633252748
1.9,0.08538531783920786,-0.02974409409055547,73.84733563171139
1.91,0.12310023922901218,0.009631652001590964,73.66880009009178
1.92,0.07495577253867537,0.022368723288329645,73.52230938927569
1.93,0.04187620461577436,-0.015842490571886397,73.35521843365733
1.94,-0.004530004524473705,-0.04478596875298972,73.15150480283495
1.95,-0.03529189571392305,-0.07896984197777981,72.97296926121534
1.96,-0.09444532688815527,-0.08532624707706656,72.815033974398
1.97,-0.07121588508242382,-0.0697021062986671,72.70287703158569
1.98,-0.11240732157240566,-0.07780530974584943,72.56783091677084
1.99,-0.10487487218868775,-0.10039238282766602,72.4007399611525
2.0,-0.10081893790514734,-0.07258917579032786,72.17642607552786
2.01,-0.10139835708851025,-0.09401171664021407,72.05282454671428
2.02,-0.1210986093228494,-0.09689878613187483,72.02993537471177
2.03,-0.07295414263251257,-0.08765531154092733,71.97500136190573
2.04,-0.021333160841998263,-0.1414906661795428,71.87200008789442
2.05,-0.09096881178797778,-0.14032613394761242,71.67057537427229
2.06,0.15786539023078713,0.2939230831215983,71.49203983265268
2.07,0.5860034922647671,1.018820136410103,71.32265995983407
2.08,0.4316672916053722,0.34023750042899664,71.21050301702175
2.09,0.007637798326147526,-0.15711480695794228,71.16701359021698
2.1,-0.3322705644230248,-0.15075840185865555,71.17845817621824
2.11,-0.32068218075576643,-0.13050039324069973,71.10979066021069
2.12,-0.183201810885111,-0.0905423810325881,70.91981053258982
2.13,-0.07938042812071945,-0.08011011312154499,70.64971830296017
2.14,-0.11878093258939773,-0.10558425569502236,70.47118276134054
2.15,-0.07938042812071945,-0.08532624707706656,70.33613664652572
2.16,-0.07880100893735655,-0.07780530974584943,70.26975804771843
2.17,-0.05962750141516551,-0.07258917579032786,70.23542428971466
2.18,-0.07353356181587549,-0.0795278470055798,70.17820135970837
2.19,-0.03934782999746346,-0.06448597234314554,70.08893358889857
2.2,-0.056150986314988015,-0.06679077571884112,69.9218426332802
2.21,-0.027706771858990335,-0.06273917399524996,69.69752874765557
2.22,-0.02712735267562742,-0.05405370443210244,69.51670428883571
2.23,-0.0027917469743849576,-0.051748901056406865,69.47092594483068
2.24,-0.022491999208724092,-0.05696503501192842,69.70668441645658
2.25,0.020437694831346484,-0.04017636200159858,70.6382737169589
2.26,-0.004530004524473705,-0.04017636200159858,73.01645868802012
2.27,0.04013794706568562,-0.019894092295477558,77.15710990327493
2.28,0.036082012782145206,-0.018171555035747185,82.51088723466299
2.29,0.07379693417194955,-0.01931182617951236,88.41171577691114
2.3,0.06684390397159455,-0.007157021008738877,94.04474100672986
2.31,0.12252082004564928,0.02583805889595561,98.6225754072327
2.32,0.1161472090286572,0.02583805889595561,101.96439451959976
2.33,0.1561271326806984,0.03799286406672909,104.12055452223659
2.34,0.1608151606188165,0.043208998022250644,105.29705796316583
2.35,0.19731856917068022,0.0704299389436236,105.78001949241887
2.36,0.1857301855034219,0.08025567965053629,105.70219630761032
2.37,0.21880975342632292,0.08894114921368382,105.24212395035978
2.38,0.20195392263758355,0.10631208833997885,104.39980242066727
2.39,0.19963624590413187,0.09995568324069212,103.24389923454031
2.4,0.15728597104742423,0.08894114921368382,101.97583910560103
2.41,0.11145918109053907,0.047260599745841805,100.94353744828763
2.42,0.043614462165863115,0.003833251930104212,100.21566177860768
2.43,0.06389413358356516,0.024091260548060017,99.5312755357325
2.44,-0.008585938808014115,-0.032048897466251045,98.87893413366086
2.45,-0.006268262074562452,-0.03901182976966819,98.16250304998216
2.46,-0.03645073408064888,-0.047697299332815704,97.40944929109945
2.47,-0.006268262074562452,-0.04248116537729415,96.6815736214195
2.48,-0.02538909512553867,-0.048279565448780905,96.01778763334659
2.49,-0.013800711458280357,-0.05638276889596323,95.37917973447644
2.5,-0.013800711458280357,-0.048279565448780905,94.61697030679272
2.51,-0.0074271004412882835,-0.06043437061955439,93.7082701782929
2.52,-0.008585938808014115,-0.04306343149325935,92.5638115781672
2.53,0.015749666893228344,-0.03149089243845106,91.17214992041434
2.54,-0.01843606492518368,-0.05638276889596323,89.79193284866274
2.55,0.01111431342632502,-0.045368234868954915,88.54676189172596
2.56,-0.028865610225716168,-0.05638276889596323,87.6037280052224
2.57,-0.011483034724828693,-0.05754730112789362,87.0658324631633
2.58,-0.029497703880293893,-0.06159890285148478,86.91934176234722
2.59,0.00010534894242962105,-0.03959409588563338,86.9857203611545
2.6,-0.041665506730915125,-0.06159890285148478,87.15510023397312
2.61,0.011693732609687936,-0.02336342790310352,87.50301564841132
2.62,-0.05730982468171385,-0.07142464355839748,87.85093106284954
2.63,-0.015538969008369104,-0.05000210270851128,88.05235577647167
2.64,-0.05962750141516551,-0.07664077751391903,88.11873437527896
2.65,-0.025968514308901586,-0.06159890285148478,87.99742176366563
2.66,-0.05730982468171385,-0.06911984018270191,87.782263546842
2.67,-0.02423025675881284,-0.05754730112789362,87.6037280052224
2.68,-0.0706364658990609,-0.07838757586181462,87.43434813240378
2.69,-0.05383330958153636,-0.06737304183480632,87.23292341878165
2.7,-0.0665805316155205,-0.06679077571884112,86.94223093434972
2.71,-0.029497703880293893,-0.055800502779998026,86.62864927791529
2.72,-0.06773936998224633,-0.0685375740667367,86.28073386347707
2.73,-0.03818899163073763,-0.05638276889596323,85.95341870384112
2.74,-0.07527181936596423,-0.07433597413822346,85.62839246140541
2.75,-0.04224492591427804,-0.06390370622718035,85.20265386215866
2.76,-0.07179530426578674,-0.07258917579032786,84.73113691890687
2.77,-0.03992724918082637,-0.05463597054806763,84.36033233246613
2.78,-0.06484227406543175,-0.0702843724146323,84.04675067603169
2.79,-0.056150986314988015,-0.07605851139795383,83.76750277760102
2.8,-0.05499214794826218,-0.0685375740667367,83.4859659619701
2.81,0.019858275647983568,-0.032048897466251045,83.14949513353314
2.82,0.023334790748161062,-0.05291343328833726,82.73520112028763
2.83,0.10566498925690991,-0.008903819356634467,82.41933054665293
2.84,0.07785286845548996,0.00036391632247824803,82.20646124702955
2.85,0.06974099988840914,0.009049385885625767,81.90432417659636
2.86,0.036082012782145206,0.011936455377286534,81.5678533481594
2.87,0.009955475059599189,-0.020476358411442755,81.2199379337212
2.88,-0.06484227406543175,-0.07547624528198864,80.88346710528424
2.89,-0.08227752403753404,-0.07489397916602344,80.54699627684728
2.9,-0.09502474607151819,-0.06623277069104114,80.25401487521509
2.91,-0.08517461995434862,-0.07433597413822346,79.98621156278568
2.92,-0.1396926976616775,-0.11485199137413507,79.75045309115978
2.93,-0.09096881178797778,-0.08532624707706656,79.58107321834117
2.94,-0.11993977095612356,-0.0905423810325881,79.39109309072032
2.95,-0.07353356181587549,-0.06101663673551958,79.1324454470919
2.96,-0.10313661463859901,-0.09226491829231848,78.90813156146726
2.97,-0.005109423707836621,-0.12006812532965662,78.73875168864866
2.98,-0.0776421705706307,-0.15944387142180305,78.59454990503282
2.99,-0.06368343569870592,0.08316701023036228,78.52588238902528
3.0,0.4281907765051947,0.7837544531773202,78.50528213422301
3.01,0.44736428402738576,0.7773737869898681,78.30156850340065
3.02,0.19731856917068022,-0.05000210270851128,78.03376519097122
3.03,-0.2533642065432386,-0.17043414436064616,77.78656213334408
3.04,-0.40069470253106365,-0.1687116071009158,77.56224824771944
3.05,-0.2382993077758028,-0.10616652181098755,77.34937894809605
3.06,-0.0996600995384215,-0.09864558447977043,77.16855448927619
3.07,-0.06600111243215759,-0.08243917758540578,76.96712977565406
3.08,-0.048039117747907194,-0.06795530795077151,76.71992671802691
3.09,-0.020753741658635347,-0.0581053061556936,76.5413911764073
3.1,-0.03992724918082637,-0.0581053061556936,76.37201130358869
3.11,0.01632908607659126,-0.018171555035747185,76.2255206027726
3.12,-0.03123596143038264,-0.06565050457507594,76.09276340515802
3.13,0.01927885646462065,-0.02394569401906872,75.92338353233941
3.14,-0.014380130641643273,-0.0488618315647461,75.66473588871101
3.15,0.032026078498604796,-0.02164089064337315,75.33970964627531
3.16,0.0018436064925183683,-0.04653276710088531,75.03757257584212
3.17,0.03782027033223395,-0.021058624527407952,74.89108187502603
3.18,0.02217595238143523,-0.025110226250999113,75.07190633384589
3.19,0.06447355276692808,-0.00021834979348694881,75.92338353233941
3.2,0.05230574991630685,-0.019894092295477558,77.8414961461501
3.21,0.10392673170682117,0.020039658824468856,81.01851322009907
3.22,0.08480589865584494,0.012518721493251731,85.21409844815992
3.23,0.13063268861273009,0.036270326806998716,90.00480214828612
3.24,0.12425907759573802,0.03857513018269429,94.76117209040856
3.25,0.1608151606188165,0.06174446938047608,98.77822177684979
3.26,0.14627700656352882,0.05594606930898933,101.79730356398142
3.27,0.19384205407050273,0.08316701023036228,103.79323936260064
3.28,0.20137450345422062,0.092434745909475,104.8598747779178
3.29,0.23445407137712163,0.10980568503577003,105.24212395035978
3.3,0.20895962730915335,0.09762661877683133,105.10707783554496
3.31,0.2042715993710352,0.09299275093727498,104.61267172029065
3.32,0.15380945594724674,0.06232673549644128,103.82757312060441
3.33,0.11498837066193136,0.03163645896744236,102.78382687728977
3.34,0.04013794706568562,-0.0152602244559212,101.78585897798015
3.35,0.03724085114887104,-0.012955421080225628,100.95498203428889
3.36,-0.05035679448135886,-0.07896984197777981,100.3049295494175
3.37,0.014590828526502515,-0.02799729574265988,99.7670340073584
3.38,0.014011409343139599,-0.010626356616364841,99.29551706410662
3.39,-0.03239479979710847,-0.05985210450358919,98.91326789166463
3.4,-0.08401578158762278,-0.10039238282766602,98.51041846442038
3.41,-0.032974218980471384,-0.06565050457507594,98.05034610716984
3.42,-0.06136575896525426,-0.09864558447977043,97.51016164791051
3.43,-0.01495954982500619,-0.05058436882447647,96.84866457703785
3.44,-0.06889820834897216,-0.0795278470055798,96.07501056335288
3.45,0.0035818640426071155,-0.030908626322485862,95.03126432003823
3.46,-0.049777375297995946,-0.06332144011121515,93.71971476429417
3.47,-0.006847681257925368,-0.041898899261328955,92.29371934853754
3.48,-0.04224492591427804,-0.06273917399524996,90.83567909197738
3.49,-0.009744777174739946,-0.05000210270851128,89.46690660622704
3.5,-0.03529189571392305,-0.06679077571884112,88.38882660490863
3.51,-0.0004740702409332947,-0.04306343149325935,87.76166329203974
3.52,-0.05499214794826218,-0.0697021062986671,87.51446023441258
3.53,-0.03818899163073763,-0.06679077571884112,87.56939424721861
3.54,-0.06600111243215759,-0.09226491829231848,87.83948647684828
3.55,-0.023650837575449925,-0.055800502779998026,88.17595730528524
3.56,-0.04630086019781845,-0.07489397916602344,88.4460495349149
3.57,-0.025968514308901586,-0.0488618315647461,88.63602966253578
3.58,-0.07179530426578674,-0.08243917758540578,88.6909636753418
3.59,-0.02423025675881284,-0.055800502779998026,88.71385284734433
3.6,-0.05441272876489927,-0.06737304183480632,88.67036342053954
3.61,-0.0555715671316251,-0.07200690967436267,88.52387271972346
3.62,-0.07121588508242382,-0.08185691146944059,88.29955883409882
3.63,-0.025968514308901586,-0.04017636200159858,87.98597717766438
3.64,-0.063104016515343,-0.0702843724146323,87.61517259122364
3.65,-0.07295414263251257,-0.08416171484513615,87.20087857797814
3.66,-0.06542169324879467,-0.08243917758540578,86.8300739915374
3.67,-0.045142021831092616,-0.06159890285148478,86.53709258990523
3.68,-0.06715995079888341,-0.06795530795077151,86.2464001054733
3.69,-0.049197956114633026,-0.06795530795077151,85.94426303504011
3.7,-0.07585123854932715,-0.07547624528198864,85.57345844859938
3.71,-0.0016329086076591261,-0.028579561858625077,85.17976469015613
3.72,-0.008006519624651199,-0.06623277069104114,84.76547067691064
3.73,0.04824981563276644,-0.04364569760922454,84.36033233246613
3.74,0.07495577253867537,-0.04478596875298972,84.00097233202666
3.75,0.10566498925690991,0.010796184233521357,83.6553458347887
3.76,0.055782265016484346,-0.007739287124704074,83.32803067515275
3.77,0.06447355276692808,0.015988057100877695,83.03733819072082
3.78,-0.03992724918082637,-0.0812746453534754,82.71231194828512
3.79,-0.049197956114633026,-0.08243917758540578,82.30717360384061
3.8,-0.14548688949530666,-0.0905423810325881,81.89287959059511
3.81,-0.1362161825615,-0.06448597234314554,81.61134277496419
3.82,-0.16286946499619415,-0.09806331836380523,81.38702888933955
3.83,-0.12636605644433044,-0.06623277069104114,81.20849334771994
3.84,-0.1646077225462829,-0.09517624887214446,81.0070686340978
3.85,-0.13795444011158875,-0.0795278470055798,80.71408723246563
3.86,-0.16344888417955705,-0.09575851498810965,80.43483933403496
3.87,-0.14085153602840333,-0.08302144370137098,80.1876362764078
3.88,-0.08575403913771153,-0.1432374645274384,80.00681181758794
3.89,-0.11066906402231691,-0.1443777356712036,79.8626100339721
3.9,-0.10777196810550232,0.0710122050595888,79.73900850515852
3.91,0.45779382932791823,0.7866415226689809,79.64974073434873
3.92,0.34580790352523105,0.5932563889040399,79.48036086153012
3.93,0.13932397636317384,-0.08937784880065772,79.22171321790171
3.94,-0.324158695855944,-0.1762325444321329,79.00884391827833
3.95,-0.41175634148617385,-0.1414906661795428,78.8074192046562
3.96,-0.3293734685062102,-0.1345519949642909,78.64948391783885
3.97,-0.10545429137205066,-0.06159890285148478,78.51443780302402
3.98,-0.10603371055541358,-0.06390370622718035,78.34734684740567
3.99,-0.08285694322089696,-0.05521823666403283,78.11158837577977
4.0,-0.10777196810550232,-0.08532624707706656,77.88727449015514
4.01,-0.06773936998224633,-0.0488618315647461,77.685849776533
4.02,-0.08169810485417112,-0.0795278470055798,77.70645003133527
4.03,-0.045142021831092616,-0.05696503501192842,77.93305283416016
4.04,-0.070057046715698,-0.06448597234314554,77.91016366215764
4.05,-0.03123596143038264,-0.03901182976966819,77.52791448971566
4.06,-0.037609572447374714,-0.047697299332815704,76.97857436165532
4.07,-0.004530004524473705,-0.0366827653058074,76.48416824640101
4.08,0.008217217509510441,-0.016424756687851594,76.2255206027726
4.09,0.019858275647983568,-0.018171555035747185,76.44983448839724
4.1,-0.005688842891199536,-0.03959409588563338,77.49358073171189
4.11,0.04824981563276644,-0.004852217633043307,79.70467474715475
4.12,0.03724085114887104,-0.017589288919781988,83.10371678952811
4.13,0.06974099988840914,0.013100987609216928,87.45723730440629
4.14,0.0720586766218608,0.01021391811755616,92.33949769254257
4.15,0.11672662821202012,0.03799286406672909,97.08442304866375
4.16,0.10972092354045032,0.04667833362987661,100.95498203428889
4.17,0.1706652867359861,0.08316701023036228,103.78408369379964
4.18,0.14569758738016592,0.0698476728276584,105.57859477879674
4.19,0.20137450345422062,0.10517181719621367,106.52162866530033
4.2,0.17877715530306693,0.08721861195395345,106.72305337892246
4.21,0.21880975342632292,0.12079595797461312,106.44151656329153
4.22,0.13410920371290758,0.05827513377285012,105.86928726322867
4.23,0.138165137996448,0.061162203264510884,105.01781006473514
4.24,0.05230574991630685,-0.0036876854011129133,104.06333159223031
4.25,0.05230574991630685,-0.0019408870532173228,103.17752063573302
4.26,-0.01322129227491744,-0.02974409409055547,102.47024522085533
4.27,-0.009165357991377032,-0.03901182976966819,101.93234967879624
4.28,-0.025968514308901586,-0.03842956365370299,101.4722773215457
4.29,-0.06426285488206884,-0.07142464355839748,101.15869566511127
4.3,-0.07648333220390488,-0.07605851139795383,100.83138050547531
4.31,-0.03645073408064888,-0.041898899261328955,100.39419732022729
4.32,-0.06368343569870592,-0.07200690967436267,99.9226803769755
4.33,-0.03818899163073763,-0.06679077571884112,99.37334024891516
4.34,-0.05151563284808469,-0.05638276889596323,98.67750942003873
4.35,-0.024809675942175757,-0.04478596875298972,97.85807706234873
4.36,-0.07179530426578674,-0.07489397916602344,96.87155374904036
4.37,-0.024809675942175757,-0.03554249416204222,95.56915986209731
4.38,-0.05093621366472177,-0.0685375740667367,93.98751807672359
4.39,-0.019594903291909514,-0.04364569760922454,92.44021004935362
4.4,-0.045142021831092616,-0.05985210450358919,91.09203781840554
4.41,-0.019015484108546598,-0.041316633145363754,90.05058049229115
4.42,-0.08227752403753404,-0.08996011491662291,86.79574023353364
4.43,-0.052674471214810524,-0.07605851139795383,84.21613054885029
4.44,-0.048039117747907194,-0.05985210450358919,84.14746303284275
4.45,-0.026547933492264503,-0.041316633145363754,84.97833997653402
4.46,-0.06889820834897216,-0.07547624528198864,86.51649233510297
4.47,-0.05788924386507677,-0.055800502779998026,87.8623756488508
4.48,-0.06889820834897216,-0.0697021062986671,88.61314049053327
4.49,-0.03645073408064888,-0.049419836592546076,88.81456520415539
4.5,-0.06831878916560925,-0.06215690787928476,88.60169590453201
4.51,-0.06542169324879467,-0.05868757227165879,88.08668953447544
4.52,-0.07179530426578674,-0.07200690967436267,87.77310787804099
4.53,-0.063104016515343,-0.06043437061955439,87.40230329160026
4.54,-0.07179530426578674,-0.07200690967436267,87.23292341878165
4.55,-0.048618536931270113,-0.05347143831613724,87.03149870515954
4.56,-0.06136575896525426,-0.05347143831613724,86.8071848195349
4.57,-0.05441272876489927,-0.051748901056406865,86.53709258990523
4.58,-0.08749229668780027,-0.08069237923751019,86.20062176146827
4.59,-0.02423025675881284,-0.0268570245988947,85.8412617610288
4.6,-0.07237472344914966,-0.07547624528198864,85.49334634659058
4.61,-0.017856645741820765,-0.029161827974590274,85.20265386215866
4.62,-0.017856645741820765,-0.06043437061955439,84.94400621853025
4.63,0.051726330732943936,-0.032048897466251045,84.51826761928348
4.64,0.09349718640628868,-0.024527960135033916,84.17035220484527
4.65,0.11556778984529428,0.04551380139794622,83.84532596240956
4.66,0.04187620461577436,-0.008321553240669272,83.58667831878115
4.67,0.04535271971595186,0.01715258933280809,83.32803067515275
4.68,-0.04745969856454428,-0.06332144011121515,83.03733819072082
4.69,-0.02423025675881284,-0.024527960135033916,82.62304417747531
4.7,-0.08865113505452611,-0.06390370622718035,82.21790583303081
4.71,-0.06715995079888341,-0.03496022804607703,82.01648111940868
4.72,-0.10719254892213942,-0.07722304362988423,81.88143500459385
4.73,-0.07527181936596423,-0.045368234868954915,81.64567653296795
4.74,-0.11298674075576857,-0.08532624707706656,81.34353946253476
4.75,-0.07880100893735655,-0.048279565448780905,81.05055806090259
4.76,-0.11240732157240566,-0.09226491829231848,80.77131016247192
4.77,-0.0706364658990609,-0.06679077571884112,80.55844086284853
4.78,-0.02828619104235325,-0.1432374645274384,80.37761640402867
4.79,-0.04688027938118137,-0.1021149200873964,80.1876362764078
4.8,0.13295036534618176,0.19200225173952365,80.02970098959045
4.81,0.5511856667917773,0.9203929017238196,79.9289886327794
4.82,0.37309327961450295,0.38424711436069947,79.80538710396581
4.83,0.09987079742328075,-0.09689878613187483,79.63829614834746
4.84,-0.33632649870656517,-0.16291320702942902,79.45747168952761
4.85,-0.30440576915039,-0.08707304542496214,79.25604697590548
4.86,-0.20348148230281304,-0.10500198957905715,79.05462226228336
4.87,-0.060786339781891345,-0.06623277069104114,78.94246531947104
4.88,-0.05383330958153636,-0.0795278470055798,78.77308544665243
4.89,-0.014380130641643273,-0.02799729574265988,78.51443780302402
4.9,-0.03587131489728597,-0.08185691146944059,78.21230073259083
4.91,0.01632908607659126,-0.02164089064337315,77.9216082481589
4.92,-0.05325389039817344,-0.09748105224784004,77.685849776533
4.93,0.018699437281257735,-0.02394569401906872,77.46153589090837
4.94,-0.01322129227491744,-0.07317144190629307,77.28071143208851
4.95,0.0285495633984273,-0.020476358411442755,77.06784213246513
4.96,0.01632908607659126,-0.04711503321685051,76.83208366083923
4.97,0.025652467481612724,-0.021058624527407952,76.58488060321208
4.98,0.04245562379913728,-0.041898899261328955,76.5185020044048
4.99,0.0726380958052237,-0.0019408870532173228,76.99001894765658
5.0,0.047670396449403525,-0.05058436882447647,78.47094837621924
5.01,0.08364706028911911,0.014265519841147321,81.2428271057237
5.02,0.0720586766218608,-0.03612476027800742,85.13627526335137
5.03,0.11730604739538303,0.024091260548060017,89.803377434664
5.04,0.1196237241288347,-0.008321553240669272,94.35832266316432
5.05,0.15149177921379506,0.0490073980937374,98.10528011997587
5.06,0.1886272814202365,0.04262673190628545,100.90004802148286
5.07,0.20716869528784979,0.06868314059572801,102.72889286448374
5.08,0.2263422028100408,0.06579607110406724,103.83901770660567
5.09,0.258262932366216,0.11616209013505677,104.51195936347959
5.1,0.25710409399949014,0.09706861374903135,104.7934961791105
5.11,0.24893955096119452,0.10922341891980483,104.88276394992032
5.12,0.16776819081917152,0.027002591127886003,104.69278382229945
5.13,0.15033294084706922,0.05594606930898933,104.22126687904766
5.14,0.08074996437230453,-0.017589288919781988,103.6490375789848
5.15,0.0726380958052237,0.01021391811755616,103.10885311972547
5.16,0.013431990159776683,-0.0581053061556936,102.72889286448374
5.17,0.020437694831346484,-0.024527960135033916,102.47024522085533
5.18,-0.02538909512553867,-0.08243917758540578,102.25737592123194
5.19,-0.021333160841998263,-0.045368234868954915,102.12232980641711
5.2,-0.045142021831092616,-0.09342945052424888,101.95523885079875
5.21,0.01927885646462065,-0.010626356616364841,101.76296980597763
5.22,-0.045142021831092616,-0.10039238282766602,101.46083273554446
5.23,-0.01611838819173202,-0.041316633145363754,101.00076037829392
5.24,-0.04745969856454428,-0.10963585741861352,100.50635426303961
5.25,-0.003950585341110789,-0.04248116537729415,99.89063553617198
5.26,-0.03529189571392305,-0.10791332015888314,99.05975859248072
5.27,-0.0010534894242962105,-0.041316633145363754,97.86952164834999
5.28,-0.03876841081410055,-0.10849558627484834,96.32221362098002
5.29,-0.011483034724828693,-0.05463597054806763,94.58263654878895
5.3,-0.027706771858990335,-0.09575851498810965,93.00099476341522
5.31,-0.0004740702409332947,-0.037847297537737794,91.84509157728826
5.32,0.006478959959421694,-0.06623277069104114,91.14926074841183
5.33,-0.016697807375094936,-0.05291343328833726,92.27083017653503
5.34,-0.052674471214810524,-0.11776332195396105,95.51422584929128
5.35,-0.02423025675881284,-0.045950500984920116,96.86010916303911
5.36,-0.04398318346436678,-0.10039238282766602,96.75939680622804
5.37,-0.01843606492518368,-0.045368234868954915,95.74998432091718
5.38,-0.03413305734719722,-0.07664077751391903,94.58263654878895
5.39,-0.03239479979710847,-0.047697299332815704,94.08823043353465
5.4,-0.05962750141516551,-0.10791332015888314,93.9211394779163
5.41,-0.037030153264011795,-0.049419836592546076,94.12256419153842
5.42,-0.07411298099923841,-0.11368745914220468,94.14545336354094
5.43,-0.017856645741820765,-0.03842956365370299,94.0104072487261
5.44,-0.03992724918082637,-0.0911246471485533,93.59611323548059
5.45,-0.016697807375094936,-0.03842956365370299,93.03532852141899
5.46,-0.06831878916560925,-0.1021149200873964,92.50658864816091
5.47,-0.019015484108546598,-0.034377961930111826,92.02362711890787
5.48,-0.06426285488206884,-0.10674878792695275,91.59788851966111
5.49,-0.03181538061374556,-0.04073436702939856,91.32779629003144
5.5,-0.07527181936596423,-0.11890359309772623,91.01421463359699
5.51,-0.019015484108546598,-0.03263116358221624,90.65485463315753
5.52,-0.06484227406543175,-0.1015326539714312,90.11695909109844
5.53,-0.03007712306365681,-0.045368234868954915,89.63399756184539
5.54,-0.06368343569870592,-0.1015326539714312,89.20825896259863
5.55,-0.019594903291909514,-0.03379569581414663,88.96105590497147
5.56,-0.06947762753233508,-0.10791332015888314,88.67036342053954
5.57,-0.024809675942175757,-0.03901182976966819,88.24233590409253
5.58,-0.05151563284808469,-0.10327945231932678,87.75021870603848
5.59,-0.011483034724828693,-0.02336342790310352,87.37941411959775
5.6,-0.02828619104235325,-0.08185691146944059,87.09787730396683
5.61,0.032605497681967716,-0.04073436702939856,86.8964525903447
5.62,0.05925878011666184,-0.06565050457507594,86.60576010591276
5.63,0.14048281472989965,0.03394126234313793,86.30133411827933
5.64,0.07437635335531245,-0.015842490571886397,85.98775246184489
5.65,0.07727344927212704,0.027002591127886003,85.6856153914117
5.66,-0.005109423707836621,-0.05521823666403283,85.47274609178832
5.67,-0.009165357991377032,-0.03379569581414663,85.25758787496468
5.68,-0.06368343569870592,-0.09922785059573562,84.9554508045315
5.69,-0.05788924386507677,-0.03496022804607703,84.71969233290561
5.7,-0.1066131297387765,-0.10444398455125718,84.49537844728097
5.71,-0.09328648852142943,-0.06332144011121515,84.29395373365884
5.72,-0.09792184198833276,-0.09631652001590964,84.01241691802792
5.73,-0.08691287750443737,-0.06101663673551958,83.75605819159976
5.74,-0.10081893790514734,-0.10791332015888314,83.54089997477612
5.75,-0.07938042812071945,-0.0488618315647461,83.32803067515275
5.76,-0.03529189571392305,-0.0911246471485533,83.19527347753817
5.77,0.029128982581790218,-0.12817132877683896,83.03733819072082
5.78,-0.08169810485417112,-0.1437954695552384,82.82446889109744
5.79,0.27564550786710346,0.4131905925418028,82.56582124746903
5.8,0.5506062476084144,1.0078298634712601,82.33006277584313
5.81,0.4235554230382914,0.33155203086584917,82.16297182022477
5.82,-0.14374863194521792,-0.1762325444321329,82.00503653340743
5.83,-0.3369059178899281,-0.10733105404291794,81.82421207458756
5.84,-0.30092925405021254,-0.13105839826849972,81.55640876215816
5.85,-0.09386590770479235,-0.03554249416204222,81.23138251972244
5.86,-0.07995984730408237,-0.1131294541144047,80.99562404809656
5.87,-0.045721441014455536,-0.05000210270851128,80.81479958927669
5.88,-0.05962750141516551,-0.09170691326451849,80.67059780566085
5.89,-0.016697807375094936,-0.03379569581414663,80.52410710484476
5.9,-0.056150986314988015,-0.10327945231932678,80.36617181802741
5.91,-0.008006519624651199,-0.04248116537729415,80.11896876040026
5.92,-0.009165357991377032,-0.05985210450358919,79.77105334596205
5.93,0.009376055876236272,-0.02336342790310352,79.42313793152383
5.94,-0.030656542247019723,-0.09401171664021407,79.1324454470919
5.95,0.01927885646462065,-0.029161827974590274,78.88524238946475
5.96,-0.0016329086076591261,-0.08011011312154499,78.8074192046562
5.97,0.023914209931523978,-0.03959409588563338,79.07751143428587
5.98,0.03724085114887104,-0.05058436882447647,80.07547933359548
5.99,0.06447355276692808,-0.00021834979348694881,82.33006277584313
6.0,0.05636168419984726,-0.03726503142177259,85.9213738630376
6.01,0.12020314331219761,0.03915739629865948,90.65485463315753
6.02,0.08364706028911911,-0.02336342790310352,95.76142890691843
6.03,0.15091236003043215,0.05536380319302413,100.54068802104338
6.04,0.1346886228962705,0.016570323216842892,104.22126687904766
6.05,0.1863096046867848,0.07620407792694513,106.83521032173478
6.06,0.19152437733705105,0.05305899981732856,108.50611987791831
6.07,0.23793058647729912,0.11499755790312637,109.42626459241937
6.08,0.225183364443315,0.07273474231931917,109.84284752286513
6.09,0.2617394474663935,0.13933142933283854,109.95500446567745
6.1,0.2222862685265004,0.0901056814456142,109.73069058005281
6.11,0.2222862685265004,0.11849115459891756,109.2362844647985
6.12,0.1265767543291897,0.02988966061954677,108.68694433673816
6.13,0.12252082004564928,0.06751860836379761,108.22687197948763
6.14,0.04940865399949227,-0.0274392907148599,107.86751197904816
6.15,0.038979108698959784,0.009631652001590964,107.56537490861497
6.16,-0.03181538061374556,-0.0702843724146323,107.32961643698908
6.17,-0.01843606492518368,-0.02569249236696431,107.07096879336066
6.18,-0.04050666836418929,-0.06795530795077151,106.82376573573352
6.19,-0.03007712306365681,-0.026274758482929508,106.58800726410762
6.2,-0.03413305734719722,-0.05696503501192842,106.29731477967569
6.21,-0.03123596143038264,-0.03149089243845106,105.85784267722742
6.22,-0.05325389039817344,-0.08185691146944059,105.39777031997689
6.23,-0.009744777174739946,-0.014119953312156023,104.87131936391906
6.24,-0.05035679448135886,-0.0795278470055798,104.2098222930464
6.25,-0.03123596143038264,-0.02799729574265988,103.24389923454031
6.26,-0.033553638163834304,-0.06390370622718035,101.8636821627887
6.27,-0.009165357991377032,-0.019894092295477558,99.9226803769755
6.28,-0.056730405498350935,-0.08590851319303175,98.11672470597713
6.29,-0.03181538061374556,-0.04364569760922454,96.73650763422553
6.3,-0.049777375297995946,-0.08011011312154499,95.6263827921036
6.31,-0.025968514308901586,-0.03321342969818143,94.90766279122465
6.32,-0.060786339781891345,-0.08069237923751019,94.55974737678643
6.33,-0.049777375297995946,-0.030908626322485862,94.12256419153842
6.34,-0.05093621366472177,-0.06679077571884112,93.93258406391755
6.35,-0.026547933492264503,-0.006574754892773681,94.12256419153842
6.36,-0.05151563284808469,-0.049419836592546076,94.51625794998166
6.37,-0.03992724918082637,-0.009486085472599664,94.8069504344136
6.38,-0.07353356181587549,-0.07547624528198864,94.96488572123094
6.39,-0.04745969856454428,-0.02799729574265988,94.97633030723219
6.4,-0.0776421705706307,-0.08302144370137098,94.8069504344136
6.41,-0.06542169324879467,-0.0366827653058074,94.51625794998166
6.42,-0.09386590770479235,-0.09170691326451849,94.11111960553716
6.43,-0.06773936998224633,-0.02974409409055547,93.71971476429417
6.44,-0.06831878916560925,-0.07200690967436267,93.34891017785344
6.45,-0.05499214794826218,-0.03554249416204222,93.1245962922288
6.46,-0.070057046715698,-0.06911984018270191,92.7995700497931
6.47,-0.05383330958153636,-0.020476358411442755,92.3280531065413
6.48,-0.070057046715698,-0.07142464355839748,91.81075781928449
6.49,-0.05441272876489927,-0.0268570245988947,91.37357463403647
6.5,-0.07411298099923841,-0.06448597234314554,91.02565921959825
6.51,-0.06194517814861717,-0.03496022804607703,90.7120775631638
6.52,-0.06889820834897216,-0.07142464355839748,90.40765157553037
6.53,-0.06252459733198008,-0.03263116358221624,90.10551450509719
6.54,-0.06426285488206884,-0.059269838387623994,89.73470991865645
6.55,-0.060206920598528425,-0.03032636020652067,89.32041590541095
6.56,-0.0776421705706307,-0.0812746453534754,88.9175664781667
6.57,-0.05151563284808469,-0.03032636020652067,88.52387271972346
6.58,-0.063104016515343,-0.0581053061556936,88.0981341204767
6.59,-0.048039117747907194,-0.02164089064337315,87.75021870603848
6.6,-0.07295414263251257,-0.07838757586181462,87.390858705599
6.61,-0.07179530426578674,-0.03959409588563338,87.0658324631633
6.62,-0.08111868567080821,-0.07200690967436267,86.69502787672258
6.63,-0.02307141839208701,-0.0008006159094521456,86.33566787628311
6.64,-0.05441272876489927,-0.059269838387623994,86.05641997785243
6.65,-0.05904808223180259,-0.034377961930111826,85.82066150622654
6.66,-0.070057046715698,-0.0702843724146323,85.5963476206019
6.67,-0.056730405498350935,-0.032048897466251045,85.43841233378456
6.68,-0.05962750141516551,-0.06506823845911075,85.25758787496468
6.69,-0.05151563284808469,-0.0274392907148599,85.01267373453778
6.7,-0.048618536931270113,-0.06506823845911075,84.69680316090309
6.71,-0.023650837575449925,-0.009486085472599664,84.44044443447493
6.72,-0.0555715671316251,-0.06795530795077151,84.21613054885029
6.73,-0.048039117747907194,-0.02799729574265988,84.01241691802792
6.74,-0.056730405498350935,-0.06159890285148478,83.76750277760102
6.75,-0.02423025675881284,-0.024527960135033916,83.4859659619701
6.76,0.007637798326147526,-0.04653276710088531,83.2502074903442
6.77,0.04477330053258895,-0.010068351588564861,83.04878277672208
6.78,0.06916158070504622,-0.041898899261328955,82.84735806309995
6.79,0.11087976190717615,0.04032192853058988,82.64364443227757
6.8,0.08132938355566745,0.016570323216842892,82.45366430465671
6.81,0.09175892885619993,0.06174446938047608,82.21790583303081
6.82,0.04998807318285518,-0.013537687196190825,81.93865793460014
6.83,-0.04282434509764096,-0.03959409588563338,81.66856570497048
6.84,-0.045721441014455536,-0.06623277069104114,81.44425181934584
6.85,-0.04688027938118137,-0.014119953312156023,81.19704876171868
6.86,-0.08343636240425986,-0.06679077571884112,81.0070686340978
6.87,-0.07648333220390488,-0.03379569581414663,80.83768876127921
6.88,-0.10371603382196191,-0.08474398096110135,80.67975347446186
6.89,-0.0845952007709857,-0.03726503142177259,80.47832876083973
6.9,-0.07938042812071945,-0.07084237744243228,80.21052544841032
6.91,-0.04398318346436678,-0.015842490571886397,79.97476697678442
6.92,-0.04340376428100387,-0.08532624707706656,79.71611933315602
6.93,0.029128982581790218,-0.11426972525816988,79.51469461953388
6.94,-0.05035679448135886,-0.12875359489280414,79.3018253199105
6.95,0.22750104117676664,0.3796132465211431,79.0431776762821
6.96,0.5639328888257614,1.0761490877445097,78.85090863146098
6.97,0.4079111050874927,0.4201292637570547,78.7181514338464
6.98,-0.05788924386507677,-0.11948585921369143,78.61743907703533
6.99,-0.33516766033983936,-0.1015326539714312,78.57166073303031
7.0,-0.2881820320162284,-0.10849558627484834,78.4022808602117
7.01,-0.15243991969566165,-0.0685375740667367,78.12303296178104
7.02,-0.05788924386507677,-0.0795278470055798,77.8414961461501
7.03,-0.05499214794826218,-0.0488618315647461,77.6629606045305
7.04,-0.03818899163073763,-0.06332144011121515,77.50502531771315
7.05,-0.032974218980471384,-0.0366827653058074,77.31504519009228
7.06,-0.037030153264011795,-0.06273917399524996,77.13422073127242
7.07,-0.022491999208724092,-0.02799729574265988,76.93279601765029
7.08,-0.015538969008369104,-0.04364569760922454,76.71992671802691
7.09,-0.004530004524473705,-0.015842490571886397,76.4612790743985
7.1,-0.009744777174739946,-0.05291343328833726,76.23696518877387
7.11,-0.003950585341110789,-0.024527960135033916,76.03554047515173
7.12,0.01806734362668001,-0.044227963725189744,75.93482811834068
7.13,0.009376055876236272,-0.02336342790310352,76.09276340515802
7.14,0.02217595238143523,-0.03612476027800742,76.87786200484426
7.15,0.04013794706568562,-0.005434483749008503,78.86235321746224
7.16,0.054623426649758514,-0.030908626322485862,82.27512876303709
7.17,0.051146911549581016,0.0032509858141390154,86.79574023353364
7.18,0.09523544395637742,0.00846711976966057,92.0121825329066
7.19,0.09581486313974034,0.024673526664025214,97.095867634665
7.2,0.13352978452954467,0.036270326806998716,101.2136296779173
7.21,0.1561271326806984,0.07215247620335397,104.34486840786123
7.22,0.16660935245244568,0.05536380319302413,106.43007197729027
7.23,0.1926832157037769,0.08430728137412745,107.62030892142101
7.24,0.2222862685265004,0.09299275093727498,108.1147150366753
7.25,0.21359498077605668,0.11790888848295235,108.12615962267657
7.26,0.22750104117676664,0.10864115280383964,107.92244599185419
7.27,0.2106978848592421,0.12601209193013468,107.49670739260743
7.28,0.1561271326806984,0.07157021008738877,106.91303350654331
7.29,0.12078256249556053,0.07157021008738877,106.27442560767318
7.3,0.08074996437230453,0.024673526664025214,105.7456857344151
7.31,0.013431990159776683,-0.004852217633043307,105.3542808931721
7.32,-0.013800711458280357,-0.041898899261328955,105.05214382273893
7.33,-0.02307141839208701,-0.03032636020652067,104.75916242110674
7.34,-0.01495954982500619,-0.03321342969818143,104.45702535067355
7.35,-0.02712735267562742,-0.022223156759338347,104.09766535023408
7.36,-0.029497703880293893,-0.0488618315647461,103.76119452179712
7.37,-0.03181538061374556,-0.032048897466251045,103.4132791073589
7.38,-0.032974218980471384,-0.059269838387623994,103.04247452091818
7.39,-0.03181538061374556,-0.04364569760922454,102.53662381966262
7.4,-0.017277226558457853,-0.049419836592546076,101.85223757678745
7.41,-0.02307141839208701,-0.034377961930111826,100.98931579229266
7.42,0.038979108698959784,-0.007739287124704074,101.04653872229895
7.43,-0.0027917469743849576,-0.03901182976966819,100.81993591947406
7.44,-0.008006519624651199,-0.05405370443210244,99.1833601212943
7.45,-0.017277226558457853,-0.041898899261328955,96.94937693384891
7.46,-0.022491999208724092,-0.06101663673551958,95.01981973403697
7.47,-0.033553638163834304,-0.04017636200159858,93.89825030591378
7.48,0.00010534894242962105,-0.03959409588563338,93.51600113347179
7.49,-0.020753741658635347,-0.026274758482929508,93.6853810062904
7.5,-0.006847681257925368,-0.02974409409055547,94.08823043353465
7.51,-0.04224492591427804,-0.05291343328833726,94.55974737678643
7.52,-0.02538909512553867,-0.05463597054806763,94.79550584841233
7.53,-0.03529189571392305,-0.041898899261328955,94.8298396064161
7.54,-0.03587131489728597,-0.06390370622718035,94.72912724960504
7.55,-0.030656542247019723,-0.02799729574265988,94.55974737678643
7.56,-0.024809675942175757,-0.03842956365370299,94.34687807716305
7.57,-0.03413305734719722,-0.034377961930111826,94.15689794954218
7.58,-0.021333160841998263,-0.04653276710088531,93.93258406391755
7.59,-0.019594903291909514,-0.02394569401906872,93.62815807628411
7.6,-0.0074271004412882835,-0.03901182976966819,93.20241947703735
7.61,-0.04282434509764096,-0.05116663494044167,92.8087257185941
7.62,-0.027706771858990335,-0.05696503501192842,92.45165463535488
7.63,-0.045721441014455536,-0.044227963725189744,92.05796087691164
7.64,-0.014380130641643273,-0.03263116358221624,91.62077769166362
7.65,-0.06484227406543175,-0.05868757227165879,91.14926074841183
7.66,-0.030656542247019723,-0.045950500984920116,90.72352214916506
7.67,-0.06773936998224633,-0.05291343328833726,90.27489437791579
7.68,-0.03529189571392305,-0.048279565448780905,89.88120061947255
7.69,-0.04050666836418929,-0.037847297537737794,89.53328520503433
7.7,-0.006847681257925368,-0.03379569581414663,89.19681437659737
7.71,-0.03876841081410055,-0.041898899261328955,88.82600979015665
7.72,-0.033553638163834304,-0.04248116537729415,88.40027119090988
7.73,-0.056730405498350935,-0.04248116537729415,88.01802201846789
7.74,-0.008006519624651199,-0.02569249236696431,87.67010660402968
7.75,-0.037609572447374714,-0.04248116537729415,87.33363577559273
7.76,-0.02017432247527243,-0.02799729574265988,87.03149870515954
7.77,-0.04630086019781845,-0.03612476027800742,86.71791704872508
7.78,-0.023650837575449925,-0.03149089243845106,86.4020464750904
7.79,-0.026547933492264503,-0.028579561858625077,86.04497539185118
7.8,-0.01322129227491744,-0.0366827653058074,85.72910481821648
7.81,-0.0445626026477297,-0.04364569760922454,85.47274609178832
7.82,0.0030024448592441996,-0.0152602244559212,85.24843220616368
7.83,-0.04745969856454428,-0.03032636020652067,85.02411832053905
7.84,-0.019015484108546598,-0.032048897466251045,84.8089601037154
7.85,-0.030656542247019723,-0.028579561858625077,84.61897997609455
7.86,-0.01611838819173202,-0.02569249236696431,84.42899984847368
7.87,-0.0074271004412882835,-0.029161827974590274,84.17035220484527
7.88,0.04940865399949227,-0.007157021008738877,83.86821513441208
7.89,0.062155876033476415,0.011354189261321338,83.60956749078368
7.9,0.12020314331219761,0.00846711976966057,83.40814277716154
7.91,0.11382953229520554,0.032218725083407555,83.339475261154
7.92,0.1271561735125526,0.05305899981732856,83.10371678952811
7.93,0.09349718640628868,0.05072993535346777,82.77869054709241
7.94,0.08422647947248202,0.022950989404294842,82.43077513265419
7.95,-0.03992724918082637,-0.03726503142177259,82.14008264822226
7.96,-0.03587131489728597,-0.04248116537729415,81.9592581894024
7.97,-0.06426285488206884,-0.028579561858625077,81.84710124659009
7.98,-0.06484227406543175,-0.03554249416204222,81.69145487697298
7.99,-0.07237472344914966,-0.0274392907148599,81.4785855773496
8.0,-0.03471247653056014,-0.00426995151707811,81.2199379337212
8.01,-0.08343636240425986,-0.0366827653058074,80.90635627728675
8.02,-0.07585123854932715,-0.04017636200159858,80.62481946165583
8.03,-0.06947762753233508,-0.02280542287530354,80.4233947480337
8.04,-0.011483034724828693,-0.02164089064337315,80.31123780522138
8.05,-0.0004740702409332947,-0.10907785239081354,80.23112570321258
8.06,-0.07880100893735655,-0.0911246471485533,80.07547933359548
8.07,0.23271581382703288,0.3796132465211431,79.8397208619696
8.08,0.5645123080091243,1.0228717381336943,79.55818404633867
8.09,0.4009580748871377,0.28928921528204193,79.278936147908
8.1,-0.0016329086076591261,-0.1328051966163953,79.05462226228336
8.11,-0.3334294027897506,-0.12353746093728259,78.87379780346349
8.12,-0.29049970874968,-0.08707304542496214,78.76164086065117
8.13,-0.15591643479583914,-0.05985210450358919,78.64948391783885
8.14,-0.05383330958153636,-0.05000210270851128,78.459503790218
8.15,-0.03239479979710847,-0.015842490571886397,78.1665223885858
8.16,-0.048039117747907194,-0.04306343149325935,77.94220850296117
8.17,-0.0555715671316251,-0.045368234868954915,77.77511754734282
8.18,-0.03239479979710847,-0.047697299332815704,77.61718226052547
8.19,-0.03992724918082637,-0.03901182976966819,77.45009130490712
8.2,0.00010534894242962105,-0.02336342790310352,77.25782226008599
8.21,-0.0074271004412882835,-0.013537687196190825,77.01290811965909
8.22,0.005320121592695863,-0.015842490571886397,76.75426047603068
8.23,-0.009165357991377032,-0.032048897466251045,76.47272366039977
8.24,0.021596533198072313,-0.011790888848295236,76.31707729078266
8.25,0.025652467481612724,-0.008903819356634467,76.33767754558492
8.26,0.06568506560486873,0.018317121564738484,76.76570506203194
8.27,0.047670396449403525,0.009631652001590964,78.077254617776
8.28,0.06800274233832039,0.015430052073077715,80.79419933447443
8.29,0.06389413358356516,0.022950989404294842,84.85473844772044
8.3,0.08770299457265952,0.019481653796668878,89.55617437703684
8.31,0.09175892885619993,0.03915739629865948,94.48192419197788
8.32,0.13410920371290758,0.057692867656884916,99.10324801928549
8.33,0.138165137996448,0.05536380319302413,102.84104980729606
8.34,0.18399192795333316,0.09590408151710096,105.57859477879674
8.35,0.1967391499873173,0.113275020643396,107.30672726498656
8.36,0.22402452607658915,0.11790888848295235,108.0918258646728
8.37,0.21996859179304873,0.11616209013505677,108.15820446348009
8.38,0.23851000566066205,0.1352798276092474,107.90184573705193
8.39,0.1741418018361636,0.09937341712472693,107.33877210579008
8.4,0.16602993326908277,0.08838314418588383,106.40947172248801
8.41,0.11087976190717615,0.057692867656884916,105.34283630717086
8.42,0.08828241375602243,0.036270326806998716,104.46846993667481
8.43,0.01927885646462065,-0.018171555035747185,103.8046839486019
8.44,0.012273151793050852,-0.011208622732330038,103.36750076335387
8.45,-0.019594903291909514,-0.02974409409055547,103.04247452091818
8.46,-0.0033711661577478735,-0.029161827974590274,102.70600369248122
8.47,-0.023650837575449925,-0.032048897466251045,102.33519910604049
8.48,-0.0033711661577478735,-0.02569249236696431,101.98728369160227
8.49,-0.04745969856454428,-0.05638276889596323,101.6187680223618
8.5,-0.023650837575449925,-0.03959409588563338,101.14725107911
8.51,-0.028865610225716168,-0.04017636200159858,100.57502177904715
8.52,0.005899540776058779,-0.020476358411442755,99.79907884816193
8.53,-0.03007712306365681,-0.04306343149325935,98.81255553485356
8.54,0.023334790748161062,0.00036391632247824803,97.61316292192183
8.55,-0.023650837575449925,-0.029161827974590274,96.1871675061652
8.56,0.012273151793050852,-0.004852217633043307,94.55974737678643
8.57,-0.03587131489728597,-0.037847297537737794,93.07881794822377
8.58,0.008796636692873358,-0.00426995151707811,91.92291476209681
8.59,-0.021333160841998263,-0.03149089243845106,91.2728622772254
8.6,-0.015538969008369104,-0.0268570245988947,91.05999297760202
8.61,-0.04398318346436678,-0.04073436702939856,91.1835945064156
8.62,-0.0010534894242962105,-0.0036876854011129133,91.17214992041434
8.63,-0.06136575896525426,-0.04364569760922454,91.1835945064156
8.64,-0.006847681257925368,-0.004852217633043307,91.4193529780415
8.65,-0.04688027938118137,-0.0274392907148599,91.65511144966739
8.66,-0.02712735267562742,-0.01875382115171238,91.84509157728826
8.67,-0.07822158975399363,-0.05696503501192842,91.94580393409932
8.68,-0.04340376428100387,-0.024527960135033916,91.92291476209681
8.69,-0.04282434509764096,-0.016424756687851594,91.67571170446965
8.7,-0.04224492591427804,-0.02394569401906872,91.2728622772254
8.71,-0.06542169324879467,-0.03901182976966819,90.83567909197738
8.72,-0.03818899163073763,-0.028579561858625077,90.51065284954169
8.73,-0.06947762753233508,-0.041316633145363754,90.19478227590699
8.74,-0.03587131489728597,-0.020476358411442755,89.93842354947883
8.75,-0.05730982468171385,-0.03263116358221624,89.54472979103559
8.76,-0.04340376428100387,-0.022223156759338347,89.08465743378505
8.77,-0.07353356181587549,-0.03554249416204222,88.63602966253578
8.78,-0.037609572447374714,-0.01700702280381679,88.210291063289
8.79,-0.04398318346436678,-0.015842490571886397,87.82804189084703
8.8,-0.032974218980471384,-0.0152602244559212,87.50301564841132
8.81,-0.06484227406543175,-0.04073436702939856,87.2214788327804
8.82,-0.05093621366472177,-0.0366827653058074,86.8964525903447
8.83,-0.06831878916560925,-0.037847297537737794,86.54853717590649
8.84,-0.009744777174739946,0.00036391632247824803,86.21206634746953
8.85,-0.07527181936596423,-0.05347143831613724,85.8412617610288
8.86,-0.03876841081410055,-0.024527960135033916,85.53912469059561
8.87,-0.08923055423788903,-0.05868757227165879,85.30336621896971
8.88,-0.027706771858990335,-0.021058624527407952,84.98978456253528
8.89,-0.06831878916560925,-0.048279565448780905,84.64186914809706
8.9,-0.04282434509764096,-0.03554249416204222,84.24817538965381
8.91,-0.041665506730915125,-0.014677958339956002,83.86821513441208
8.92,-0.020753741658635347,-0.007739287124704074,83.56378914677865
8.93,-0.017277226558457853,-0.01931182617951236,83.35091984715525
8.94,0.020437694831346484,0.006744582509930196,83.19527347753817
8.95,0.047670396449403525,0.029307394503581573,83.04878277672208
8.96,0.06684390397159455,0.06232673549644128,82.89084748990473
8.97,-0.0016329086076591261,0.03277673011120754,82.6894227762826
8.98,0.007637798326147526,0.03394126234313793,82.48799806266048
8.99,-0.049777375297995946,-0.041316633145363754,82.21790583303081
9.0,-0.06136575896525426,-0.03554249416204222,81.94781360340114
9.01,-0.10197777627187317,-0.04364569760922454,81.7234997177765
9.02,-0.07121588508242382,-0.02336342790310352,81.5678533481594
9.03,-0.0996600995384215,-0.04711503321685051,81.39847347534081
9.04,-0.10023951872178442,-0.05638276889596323,81.1398258317124
9.05,-0.10603371055541358,-0.06390370622718035,80.82624417527795
9.06,-0.0706364658990609,-0.04017636200159858,80.64770863365834
9.07,-0.0996600995384215,-0.06448597234314554,80.48977334684099
9.08,-0.05325389039817344,-0.07547624528198864,80.29979321922012
9.09,0.0012641873091554525,-0.13569226610805607,80.08692391959674
9.1,-0.060206920598528425,-0.07258917579032786,79.8397208619696
9.11,0.258262932366216,0.40913899081821165,79.59251780434244
9.12,0.5755212724930198,1.0506749451710324,79.40253767672156
9.13,0.3922141126654792,0.2603457371009386,79.24460238990422
9.14,-0.08343636240425986,-0.11426972525816988,79.1324454470919
9.15,-0.3403824329901056,-0.10616652181098755,79.03173309028084
9.16,-0.2487288530763353,-0.06565050457507594,78.88524238946475
9.17,-0.15359875806238749,-0.08185691146944059,78.68381767584262
9.18,-0.052674471214810524,-0.0581053061556936,78.49383754822176
9.19,-0.07179530426578674,-0.06273917399524996,78.31301308940189
9.2,-0.01206245390819161,-0.018171555035747185,78.02232060496996
9.21,-0.052095052031447604,-0.06159890285148478,77.70645003133527
9.22,-0.0004740702409332947,-0.01931182617951236,77.49358073171189
9.23,-0.019594903291909514,-0.03612476027800742,77.32648977609354
9.24,0.004161283225970031,-0.0274392907148599,77.1914436612787
9.25,-0.015538969008369104,-0.041316633145363754,77.00146353365784
9.26,0.030867240131878967,0.0009461824384434448,76.74281589002942
9.27,-0.03471247653056014,-0.05985210450358919,76.44067881959624
9.28,0.03839968951559687,-0.0031054192851477165,76.2827435327789
9.29,0.005320121592695863,-0.03149089243845106,76.33767754558492
9.3,0.043614462165863115,-0.008321553240669272,76.80919448883672
9.31,0.055782265016484346,0.00846711976966057,78.25807907659586
9.32,0.09581486313974034,0.03394126234313793,81.08489181890636
9.33,0.04998807318285518,-0.0025231531691825193,85.1248306773501
9.34,0.11261801945726489,0.039739662414624684,89.85831144747003
9.35,0.11030034272381323,0.039739662414624684,94.77261667640983
9.36,0.1776183169363411,0.08721861195395345,99.17191553529304
9.37,0.18341250876997023,0.08780087806991864,102.58240216366764
9.38,0.21996859179304873,0.10922341891980483,104.96058713472887
9.39,0.20895962730915335,0.10112021547262251,106.44151656329153
9.4,0.24546303586101703,0.13006369365372583,107.10530255136445
9.41,0.21938917260968582,0.10864115280383964,107.2060149081755
9.42,0.25009838932792033,0.1451055683161601,106.95881185054834
9.43,0.18515076632005897,0.10284275273235288,106.45296114929279
9.44,0.1532300367638838,0.08258474411439708,105.7456857344151
9.45,0.08596473702257078,0.047260599745841805,105.0292546507364
9.46,0.08248822192239327,0.04609606751391141,104.47991452267607
9.47,0.0035818640426071155,-0.012373154964260433,104.06333159223031
9.48,0.0035818640426071155,0.0032509858141390154,103.68108241978832
9.49,-0.041665506730915125,-0.04073436702939856,103.33545592255037
9.5,-0.005688842891199536,-0.007739287124704074,102.98754050811215
9.51,-0.03818899163073763,-0.041898899261328955,102.64878076247494
9.52,-0.01843606492518368,-0.02974409409055547,102.39242203604678
9.53,-0.05383330958153636,-0.052331167172372066,102.06739579361107
9.54,-0.004530004524473705,-0.02164089064337315,101.57298967835678
9.55,-0.028865610225716168,-0.04306343149325935,100.9114926074841
9.56,0.0018436064925183683,-0.01931182617951236,100.13554967659888
9.57,-0.026547933492264503,-0.04248116537729415,99.21540496209781
9.58,0.02217595238143523,-0.013537687196190825,98.08239094797337
9.59,-0.04340376428100387,-0.051748901056406865,96.71361846222302
9.6,-0.0033711661577478735,-0.028579561858625077,95.14342126285055
9.61,-0.027706771858990335,-0.03496022804607703,93.58466864947934
9.62,-0.005109423707836621,-0.014677958339956002,91.833646991287
9.63,-0.03876841081410055,-0.041898899261328955,90.48776367753916
9.64,-0.003950585341110789,-0.007739287124704074,89.92697896347758
9.65,-0.04282434509764096,-0.04364569760922454,89.85831144747003
9.66,-0.006847681257925368,-0.0008006159094521456,90.16273743510347
9.67,-0.05846866304843968,-0.04073436702939856,90.64341004715627
9.68,0.006478959959421694,0.013683253725182126,91.05999297760202
9.69,-0.05325389039817344,-0.037847297537737794,91.2728622772254
9.7,-0.020753741658635347,-0.0152602244559212,91.30719603522918
9.71,-0.0770627513872678,-0.06043437061955439,91.17214992041434
9.72,-0.032974218980471384,-0.030908626322485862,91.04854839160076
9.73,-0.0665805316155205,-0.03726503142177259,90.91350227678593
9.74,-0.01322129227491744,0.004997784162034606,90.75556698996859
9.75,-0.06426285488206884,-0.05116663494044167,90.48776367753916
9.76,-0.019594903291909514,-0.011208622732330038,90.1284036770997
9.77,-0.048039117747907194,-0.03612476027800742,89.73470991865645
9.78,-0.009165357991377032,-0.0036876854011129133,89.3318604914122
9.79,-0.04745969856454428,-0.016424756687851594,88.9175664781667
9.8,-0.027706771858990335,-0.012373154964260433,88.56965106372849
9.81,-0.0776421705706307,-0.05696503501192842,88.210291063289
9.82,-0.033553638163834304,-0.028579561858625077,87.81659730484577
9.83,-0.07648333220390488,-0.04248116537729415,87.33363577559273
9.84,-0.03934782999746346,-0.02394569401906872,86.87356341834219
9.85,-0.05962750141516551,-0.03263116358221624,86.45926940509668
9.86,-0.03123596143038264,-0.008903819356634467,86.08846481865595
9.87,-0.06252459733198008,-0.032048897466251045,85.75199399021899
9.88,-0.03181538061374556,-0.014677958339956002,85.43841233378456
9.89,-0.06484227406543175,-0.03149089243845106,85.1248306773501
9.9,-0.03876841081410055,-0.02569249236696431,84.8089601037154
9.91,-0.06889820834897216,-0.03612476027800742,84.45188902047619
9.92,-0.021912580025361176,-0.0019408870532173228,84.13601844684149
9.93,-0.05846866304843968,-0.03321342969818143,83.84532596240956
9.94,-0.05093621366472177,-0.02394569401906872,83.49741054797136
9.95,-0.04340376428100387,-0.021058624527407952,83.14949513353314
9.96,-0.015538969008369104,-0.006574754892773681,82.83591347709869
9.97,-0.004530004524473705,-0.012955421080225628,82.6001550054728
9.98,0.027390725031701472,0.011354189261321338,82.38728570584941
9.99,0.06389413358356516,0.0484251319777722,82.17212748902578
