time_s,ECG,NIBP
0.0,-0.22781499688101917,-1.4660396795041788
0.01,-0.2290192686472513,-1.4350899529368684
0.02,-0.23084643960291387,-1.5263101996615727
0.03,-0.22764889043050437,-1.3438697062121638
0.04,-0.2258217194748418,-1.4350899529368684
0.05,-0.22735820414210353,-1.4057691593467847
0.06,-0.2227902767529471,-1.4057691593467847
0.07,-0.22262417030243234,-1.4350899529368684
0.08,-0.22935148154828086,-1.4660396795041788
0.09,-0.22569713963695573,-1.4969894060714892
0.1,-0.21789013646276112,-1.4969894060714892
0.11,-0.20277444946591625,-1.4660396795041788
0.12,-0.18724349634278445,-1.4969894060714892
0.13,-0.16801667469569878,-1.3438697062121638
0.14,-0.1208424427495016,-1.557259926228883
0.15,-0.07246393903707227,-1.4057691593467847
0.16,-0.05797115122965781,-1.5263101996615727
0.17,-0.06623494714276806,-1.4969894060714892
0.18,-0.0886593179622632,-1.4660396795041788
0.19,-0.14040147729761682,-1.4969894060714892
0.2,-0.19990911319453633,-1.4969894060714892
0.21,-0.23740764439824763,-1.4969894060714892
0.22,-0.25053005398891515,-1.4660396795041788
0.23,-0.2598735418303715,-1.4660396795041788
0.24,-0.25941674909145584,-1.4057691593467847
0.25,-0.2847479827949596,-1.4660396795041788
0.26,-0.4243604544526312,-1.4969894060714892
0.27,-0.4361124858265518,-1.4350899529368684
0.28,0.28441576989393,-1.557259926228883
0.29,1.3374476129323705,-1.4660396795041788
0.3,1.2017801694744248,-1.4969894060714892
0.31,0.023047270008925563,-1.5263101996615727
0.32,-0.5522208947363823,-1.4969894060714892
0.33,-0.41871283513512875,-1.4660396795041788
0.34,-0.3108266955257799,-1.4350899529368684
0.35,-0.3038086979915305,-1.4057691593467847
0.36,-0.2975381794845976,-1.4350899529368684
0.37,-0.28013852879317447,-1.4660396795041788
0.38,-0.26261429826386534,-1.4660396795041788
0.39,-0.2540598160623542,-1.4350899529368684
0.4,-0.24824609029433697,-1.4660396795041788
0.41,-0.2258217194748418,-1.4660396795041788
0.42,-0.20522451961100924,-1.4660396795041788
0.43,-0.19226821647085648,-1.4057691593467847
0.44,-0.16967773920084658,-1.4057691593467847
0.45,-0.13761919425149427,-1.4350899529368684
0.46,-0.10207241384133159,-1.4660396795041788
0.47,-0.0634941907092742,-1.3438697062121638
0.48,-0.012665616851751885,-1.5263101996615727
0.49,0.05386001657941704,-1.4350899529368684
0.5,0.12466289111134152,-1.5263101996615727
0.51,0.2070516905666718,-1.4969894060714892
0.52,0.30164931413483836,-1.5263101996615727
0.53,0.3901840522592155,-1.3748194327794743
0.54,0.45729105826718613,-1.5263101996615727
0.55,0.5023059063566911,-1.4350899529368684
0.56,0.5226124199321229,-1.5263101996615727
0.57,0.5093239038909406,-1.4057691593467847
0.58,0.45625289295146876,-1.4969894060714892
0.59,0.35737802828254667,-1.4057691593467847
0.6,0.23026506702611216,-1.4660396795041788
0.61,0.11017010330392706,-1.4057691593467847
0.62,0.002450070145092988,-1.4969894060714892
0.63,-0.08180742687852857,-1.4660396795041788
0.64,-0.1420625418027646,-1.5263101996615727
0.65,-0.17287528837325605,-1.4057691593467847
0.66,-0.1884477681090166,-1.5263101996615727
0.67,-0.20219307688911453,-1.4969894060714892
0.68,-0.20568131234992487,-1.4660396795041788
0.69,-0.19895400110407635,-1.4660396795041788
0.7,-0.19181142373194085,-1.4660396795041788
0.71,-0.1820526697641976,-1.4057691593467847
0.72,-0.1796025996191046,-1.4969894060714892
0.73,-0.17549146496886384,-1.4660396795041788
0.74,-0.17304139482377084,-1.4969894060714892
0.75,-0.17623894399618034,-1.4057691593467847
0.76,-0.18815708182061572,-1.4057691593467847
0.77,-0.18736807618067053,-1.3748194327794743
0.78,-0.19546576564326598,-1.4057691593467847
0.79,-0.2049338333226084,-1.4660396795041788
0.8,-0.20065659222185284,-1.4660396795041788
0.81,-0.20767458975610223,-1.4350899529368684
0.82,-0.21348831552411948,-1.5263101996615727
0.83,-0.21377900181252035,-1.4969894060714892
0.84,-0.21544006631766816,-1.5263101996615727
0.85,-0.22216737756351668,-1.4350899529368684
0.86,-0.22187669127511583,-1.4660396795041788
0.87,-0.22337164932974882,-1.4057691593467847
0.88,-0.22245806385191755,-1.4660396795041788
0.89,-0.22171058482460104,-1.5263101996615727
0.9,-0.22856247590833567,-1.5263101996615727
0.91,-0.23317192991012078,-1.4350899529368684
0.92,-0.23038964686399824,-1.4969894060714892
0.93,-0.22536492673592617,-1.4057691593467847
0.94,-0.21622907195761334,-1.5263101996615727
0.95,-0.1968361438600129,-1.4660396795041788
0.96,-0.18770028908170008,-1.4969894060714892
0.97,-0.17424566659000298,-1.4350899529368684
0.98,-0.12300182660619373,-1.4660396795041788
0.99,-0.08346849138367636,-1.4660396795041788
1.0,-0.0706367680814097,-1.5263101996615727
1.01,-0.06943249631517755,-1.4660396795041788
1.02,-0.09596800178491346,-1.5263101996615727
1.03,-0.16448691262225973,-1.4969894060714892
1.04,-0.22536492673592617,-1.4350899529368684
1.05,-0.24230778468843361,-1.3748194327794743
1.06,-0.2502393677005143,-1.4660396795041788
1.07,-0.26410925631849835,-1.4969894060714892
1.08,-0.2714594667537773,-1.4660396795041788
1.09,-0.302106106873754,-1.4350899529368684
1.1,-0.43823034307061526,-1.557259926228883
1.11,-0.40222676992153694,-1.4057691593467847
1.12,0.39595625141460405,-1.4969894060714892
1.13,1.390684730322357,-1.4057691593467847
1.14,1.0700992808288339,-1.4969894060714892
1.15,-0.12100854920001637,-1.3748194327794743
1.16,-0.5773860219893712,-1.5263101996615727
1.17,-0.41061514567253327,-1.4660396795041788
1.18,-0.3138581382476746,-1.4969894060714892
1.19,-0.30090183510752183,-1.4969894060714892
1.2,-0.289315910184116,-1.5263101996615727
1.21,-0.2732866377094399,-1.4057691593467847
1.22,-0.2555963007296159,-1.4350899529368684
1.23,-0.2400238209938554,-1.4660396795041788
1.24,-0.23603726618150073,-1.557259926228883
1.25,-0.22154447837408625,-1.4057691593467847
1.26,-0.1962132446705825,-1.4969894060714892
1.27,-0.17212780934593958,-1.4350899529368684
1.28,-0.14771016112026708,-1.4660396795041788
1.29,-0.12923081850049792,-1.4660396795041788
1.3,-0.09443151711765177,-1.5263101996615727
1.31,-0.04227409165601121,-1.4660396795041788
1.32,0.012499510401237106,-1.4057691593467847
1.33,0.07400042370433396,-1.3748194327794743
1.34,0.14679657564243578,-1.4969894060714892
1.35,0.23408551538795205,-1.3748194327794743
1.36,0.3298874107223508,-1.4969894060714892
1.37,0.41551528596271925,-1.4660396795041788
1.38,0.4769746726531874,-1.557259926228883
1.39,0.5177122796419369,-1.4660396795041788
1.4,0.5319143811609505,-1.4969894060714892
1.41,0.5140579377306118,-1.4660396795041788
1.42,0.44632803253321074,-1.4660396795041788
1.43,0.3344553381115072,-1.4660396795041788
1.44,0.2104153461895961,-1.4057691593467847
1.45,0.08637535426768499,-1.4057691593467847
1.46,-0.014949580546330095,-1.4660396795041788
1.47,-0.0941408308292509,-1.4660396795041788
1.48,-0.15427136591560084,-1.5263101996615727
1.49,-0.1803500786464211,-1.4057691593467847
1.5,-0.18907066729844701,-1.4350899529368684
1.51,-0.19575645193166685,-1.4350899529368684
1.52,-0.19426149387703384,-1.4969894060714892
1.53,-0.19181142373194085,-1.4350899529368684
1.54,-0.17927038671807505,-1.4350899529368684
1.55,-0.17349818756268648,-1.4057691593467847
1.56,-0.17225238918382565,-1.4969894060714892
1.57,-0.16540049810009103,-1.4057691593467847
1.58,-0.16664629647895185,-1.5263101996615727
1.59,-0.1704252182281631,-1.4660396795041788
1.6,-0.1725846020848552,-1.4969894060714892
1.61,-0.17470245932891865,-1.4969894060714892
1.62,-0.18537479877449317,-1.4969894060714892
1.63,-0.18873845439741743,-1.4660396795041788
1.64,-0.17623894399618034,-1.4350899529368684
1.65,-0.18217724960208367,-1.4969894060714892
1.66,-0.19118852454251042,-1.4969894060714892
1.67,-0.1939292809760043,-1.4660396795041788
1.68,-0.19347248823708865,-1.4660396795041788
1.69,-0.1938047011381182,-1.4969894060714892
1.7,-0.1962132446705825,-1.4350899529368684
1.71,-0.19654545757161204,-1.4660396795041788
1.72,-0.19575645193166685,-1.4660396795041788
1.73,-0.19135463099302522,-1.4350899529368684
1.74,-0.18417052700826103,-1.557259926228883
1.75,-0.19135463099302522,-1.3748194327794743
1.76,-0.18736807618067053,-1.5263101996615727
1.77,-0.16984384565136135,-1.4350899529368684
1.78,-0.14696268209295058,-1.4969894060714892
1.79,-0.12574258303968758,-1.4660396795041788
1.8,-0.07964804302183645,-1.4660396795041788
1.81,-0.03754005781634002,-1.4057691593467847
1.82,-0.029774581254774106,-1.4660396795041788
1.83,-0.023960855486756846,-1.4350899529368684
1.84,-0.038287536843656524,-1.4969894060714892
1.85,-0.10618354849157237,-1.3748194327794743
1.86,-0.17320750127428564,-1.4660396795041788
1.87,-0.1923927963087426,-1.4350899529368684
1.88,-0.1962132446705825,-1.4350899529368684
1.89,-0.21606296550709855,-1.4660396795041788
1.9,-0.2284378960704496,-1.5263101996615727
1.91,-0.2612439200471184,-1.3748194327794743
1.92,-0.3864881837352616,-1.5263101996615727
1.93,-0.28229791264986664,-1.5263101996615727
1.94,0.5712816099329531,-1.4660396795041788
1.95,1.3882346601772642,-1.4350899529368684
1.96,0.8386299420364897,-1.4969894060714892
1.97,-0.2894404900220021,-1.4350899529368684
1.98,-0.5792131929450338,-1.4350899529368684
1.99,-0.3648528185557117,-1.4057691593467847
2.0,-0.26552116114787394,-1.4969894060714892
2.01,-0.24521464757244224,-1.3438697062121638
2.02,-0.23558047344258506,-1.3748194327794743
2.03,-0.2227902767529471,-1.4350899529368684
2.04,-0.21070603247799694,-1.5263101996615727
2.05,-0.18890456084793222,-1.3438697062121638
2.06,-0.1672276690557536,-1.5263101996615727
2.07,-0.15153060948210698,-1.4057691593467847
2.08,-0.14085827003653245,-1.4660396795041788
2.09,-0.12192213467784765,-1.4350899529368684
2.1,-0.08467276314990851,-1.5263101996615727
2.11,-0.052032845623754466,-1.4350899529368684
2.12,-0.01357920232958317,-1.4969894060714892
2.13,0.038287536843656524,-1.4660396795041788
2.14,0.09476373001868132,-1.4660396795041788
2.15,0.1671030892178675,-1.4057691593467847
2.16,0.24961646851108388,-1.557259926228883
2.17,0.3378189937344314,-1.4057691593467847
2.18,0.4275580036250407,-1.557259926228883
2.19,0.5094900103414554,-1.3748194327794743
2.2,0.568706959949974,-1.4350899529368684
2.21,0.6022604629539593,-1.4350899529368684
2.22,0.6004332919982968,-1.4969894060714892
2.23,0.5658000970659653,-1.4350899529368684
2.24,0.4942497435067244,-1.4969894060714892
2.25,0.38100667086827394,-1.3748194327794743
2.26,0.25389370961183944,-1.4969894060714892
2.27,0.1318469950961057,-1.4969894060714892
2.28,0.03172633204832276,-1.5263101996615727
2.29,-0.039990127961433,-1.4057691593467847
2.3,-0.07661660029994173,-1.4660396795041788
2.31,-0.09613410823542824,-1.3748194327794743
2.32,-0.10971331056501142,-1.4969894060714892
2.33,-0.11124979523227312,-1.4350899529368684
2.34,-0.11274475328690613,-1.4660396795041788
2.35,-0.10526996301374109,-1.4660396795041788
2.36,-0.0926043461619892,-1.4969894060714892
2.37,-0.0941408308292509,-1.4969894060714892
2.38,-0.08928221715169363,-1.4969894060714892
2.39,-0.08683214700660064,-1.4057691593467847
2.4,-0.08986358972849534,-1.557259926228883
2.41,-0.09065259536844054,-1.4057691593467847
2.42,-0.09567731549651261,-1.4057691593467847
2.43,-0.09767059290268995,-1.4969894060714892
2.44,-0.09995455659726817,-1.4350899529368684
2.45,-0.10526996301374109,-1.4057691593467847
2.46,-0.10942262427661055,-1.4350899529368684
2.47,-0.11199727425958962,-1.4969894060714892
2.48,-0.11764489357709211,-1.4969894060714892
2.49,-0.12175602822733288,-1.4660396795041788
2.5,-0.11839237260440862,-1.557259926228883
2.51,-0.12175602822733288,-1.4057691593467847
2.52,-0.12266961370516416,-1.4969894060714892
2.53,-0.11473803069308347,-1.4057691593467847
2.54,-0.11461345085519739,-1.4660396795041788
2.55,-0.1272375410943206,-1.4057691593467847
2.56,-0.12968761123941358,-1.4350899529368684
2.57,-0.12300182660619373,-1.4969894060714892
2.58,-0.12374930563351023,-1.5263101996615727
2.59,-0.11884916534332425,-1.4660396795041788
2.6,-0.11245406699850527,-1.4350899529368684
2.61,-0.0949298364691961,-1.4350899529368684
2.62,-0.07582759465999654,-1.5263101996615727
2.63,-0.05797115122965781,-1.4350899529368684
2.64,-0.005190826578586838,-1.5882096527961935
2.65,0.032515337688267955,-1.4350899529368684
2.66,0.03035595383157583,-1.3748194327794743
2.67,0.03616967959959309,-1.4660396795041788
2.68,0.019683614386001292,-1.4969894060714892
2.69,-0.04667591259465285,-1.3748194327794743
2.7,-0.1161084089098304,-1.6191593793635042
2.71,-0.1429761272805959,-1.4969894060714892
2.72,-0.15198740222102264,-1.4969894060714892
2.73,-0.16357332714442846,-1.4969894060714892
2.74,-0.17594825770777947,-1.4969894060714892
2.75,-0.22245806385191755,-1.4660396795041788
2.76,-0.3433420332140478,-1.5263101996615727
2.77,-0.17059132467867785,-1.4660396795041788
2.78,0.7157942218808107,-1.4969894060714892
2.79,1.395584870612543,-1.4660396795041788
2.8,0.7267572476147861,-1.4350899529368684
2.81,-0.3239491051164474,-1.4350899529368684
2.82,-0.5146808369200422,-1.4660396795041788
2.83,-0.2987839778634584,-1.4969894060714892
2.84,-0.21926051467950805,-1.5263101996615727
2.85,-0.20904496797284916,-1.4350899529368684
2.86,-0.19529965919275122,-1.4660396795041788
2.87,-0.1741210867521169,-1.4057691593467847
2.88,-0.1632826408560276,-1.4057691593467847
2.89,-0.16265974166659716,-1.4057691593467847
2.9,-0.14891443288649922,-1.4969894060714892
2.91,-0.12541037013865802,-1.4969894060714892
2.92,-0.10942262427661055,-1.4969894060714892
2.93,-0.09019580262952491,-1.4660396795041788
2.94,-0.06453235602499158,-1.4660396795041788
2.95,-0.03891043603308694,-1.4350899529368684
2.96,0.004734033839671197,-1.4660396795041788
2.97,0.057846571391771726,-1.4057691593467847
2.98,0.1058928622031715,-1.5263101996615727
2.99,0.16523439164957623,-1.3748194327794743
3.0,0.24733250481650568,-1.3748194327794743
3.01,0.33707151470711494,-1.4057691593467847
3.02,0.41871283513512875,-1.4969894060714892
3.03,0.4896402895049393,-1.4350899529368684
3.04,0.5468639617072806,-1.4969894060714892
3.05,0.5702019180046071,-1.4660396795041788
3.06,0.565177197876535,-1.4350899529368684
3.07,0.5430435133454407,-1.4057691593467847
3.08,0.4707456807588832,-1.5263101996615727
3.09,0.3572119218320319,-1.4969894060714892
3.1,0.23254903072069036,-1.4660396795041788
3.11,0.11444734440468261,-1.4350899529368684
3.12,0.01586316602416138,-1.4660396795041788
3.13,-0.04929208919026062,-1.4350899529368684
3.14,-0.08973900989060926,-1.4969894060714892
3.15,-0.11718810083817646,-1.4350899529368684
3.16,-0.13230378783502134,-1.5263101996615727
3.17,-0.1350445442685152,-1.5263101996615727
3.18,-0.13076730316775964,-1.4057691593467847
3.19,-0.12678074835540495,-1.4660396795041788
3.2,-0.12968761123941358,-1.4969894060714892
3.21,-0.12894013221209707,-1.4969894060714892
3.22,-0.12665616851751885,-1.5263101996615727
3.23,-0.12466289111134152,-1.4350899529368684
3.24,-0.1216314483894468,-1.557259926228883
3.25,-0.12374930563351023,-1.4057691593467847
3.26,-0.1325944741234222,-1.557259926228883
3.27,-0.13213768138450657,-1.3748194327794743
3.28,-0.1318469950961057,-1.5263101996615727
3.29,-0.1373285079630934,-1.4660396795041788
3.3,-0.14388971275842716,-1.557259926228883
3.31,-0.15090771029267658,-1.4660396795041788
3.32,-0.14999412481484528,-1.4350899529368684
3.33,-0.1506170240042757,-1.4057691593467847
3.34,-0.15792570782692597,-1.4350899529368684
3.35,-0.1649437053611754,-1.5263101996615727
3.36,-0.1585486070163564,-1.5263101996615727
3.37,-0.1591299795931581,-1.4350899529368684
3.38,-0.16523439164957623,-1.5263101996615727
3.39,-0.1672276690557536,-1.4350899529368684
3.4,-0.1710481174175935,-1.4660396795041788
3.41,-0.16755988195678315,-1.4350899529368684
3.42,-0.17225238918382565,-1.5882096527961935
3.43,-0.1748685657794334,-1.3748194327794743
3.44,-0.17378887385108735,-1.4969894060714892
3.45,-0.1727091819227413,-1.4350899529368684
3.46,-0.17441177304051778,-1.4969894060714892
3.47,-0.17333208111217172,-1.4057691593467847
3.48,-0.17561604480674992,-1.5263101996615727
3.49,-0.16569118438849187,-1.4660396795041788
3.5,-0.14343292001951152,-1.5263101996615727
3.51,-0.12358319918299544,-1.4660396795041788
3.52,-0.09247976632410311,-1.557259926228883
3.53,-0.05111926014592318,-1.4350899529368684
3.54,-0.028694889326428042,-1.4660396795041788
3.55,-0.028362676425398484,-1.3129199796448534
3.56,-0.03965791506040345,-1.4660396795041788
3.57,-0.08272101235635985,-1.4660396795041788
3.58,-0.15489426510503126,-1.4660396795041788
3.59,-0.19712683014841378,-1.4350899529368684
3.6,-0.20202697043859974,-1.4969894060714892
3.61,-0.22308096304134797,-1.5263101996615727
3.62,-0.24077130002117192,-1.557259926228883
3.63,-0.2536030233234386,-1.4969894060714892
3.64,-0.3622366419601039,-1.4969894060714892
3.65,-0.43486668744769097,-1.4057691593467847
3.66,0.1216314483894468,-1.4660396795041788
3.67,1.2087981670086743,-1.4350899529368684
3.68,1.3330042653811,-1.4969894060714892
3.69,0.20431093413317797,-1.4350899529368684
3.7,-0.525187069915102,-1.4969894060714892
3.71,-0.4339531019698597,-1.4057691593467847
3.72,-0.2958771149794498,-1.5263101996615727
3.73,-0.28379287070449966,-1.4350899529368684
3.74,-0.27374343044835553,-1.4660396795041788
3.75,-0.2598735418303715,-1.4057691593467847
3.76,-0.25389370961183944,-1.4969894060714892
3.77,-0.24396884919358142,-1.4660396795041788
3.78,-0.23271513717120515,-1.4350899529368684
3.79,-0.21681044453441506,-1.4350899529368684
3.8,-0.1945521801654347,-1.4350899529368684
3.81,-0.1693870529124457,-1.4350899529368684
3.82,-0.14451261194785758,-1.4969894060714892
3.83,-0.11826779276652252,-1.4057691593467847
3.84,-0.08500497605093807,-1.4969894060714892
3.85,-0.04804629081139978,-1.4350899529368684
3.86,0.0010796919283460624,-1.4660396795041788
3.87,0.06179159959149772,-1.4350899529368684
3.88,0.13396485234016914,-1.5263101996615727
3.89,0.21743334372384548,-1.4350899529368684
3.9,0.30164931413483836,-1.4057691593467847
3.91,0.3869449764741773,-1.3748194327794743
3.92,0.4643090558014355,-1.4969894060714892
3.93,0.5126875595138649,-1.4057691593467847
3.94,0.5334508658282122,-1.4660396795041788
3.95,0.5248963836267011,-1.4969894060714892
3.96,0.4800476419877108,-1.4350899529368684
3.97,0.39412908045894146,-1.4057691593467847
3.98,0.28030463524368926,-1.5882096527961935
3.99,0.1617461561887659,-1.4350899529368684
4.0,0.050496360956492764,-1.4660396795041788
4.01,-0.04136050617817993,-1.4350899529368684
4.02,-0.10452248398642458,-1.4350899529368684
4.03,-0.14023537084710203,-1.4057691593467847
4.04,-0.16664629647895185,-1.5263101996615727
4.05,-0.17760932221292727,-1.4057691593467847
4.06,-0.18250946250311323,-1.4350899529368684
4.07,-0.18400442055774624,-1.3129199796448534
4.08,-0.1837137342693454,-1.4969894060714892
4.09,-0.16893026017353008,-1.4057691593467847
4.1,-0.16510981181169015,-1.4350899529368684
4.11,-0.16755988195678315,-1.4350899529368684
4.12,-0.16037577797201896,-1.4057691593467847
4.13,-0.16448691262225973,-1.4350899529368684
4.14,-0.1687641537230153,-1.4660396795041788
4.15,-0.17686184318561077,-1.4350899529368684
4.16,-0.1858315915134088,-1.557259926228883
4.17,-0.18965203987524873,-1.4057691593467847
4.18,-0.1916453172814261,-1.4350899529368684
4.19,-0.19529965919275122,-1.4057691593467847
4.2,-0.2055152058994101,-1.4660396795041788
4.21,-0.20505841316049447,-1.3748194327794743
4.22,-0.2049338333226084,-1.3748194327794743
4.23,-0.2110382453790265,-1.4660396795041788
4.24,-0.2079652760445031,-1.5263101996615727
4.25,-0.2126993098841743,-1.3438697062121638
4.26,-0.21544006631766816,-1.4969894060714892
4.27,-0.21469258729035165,-1.3748194327794743
4.28,-0.2119518308568578,-1.4350899529368684
4.29,-0.21348831552411948,-1.4057691593467847
4.3,-0.21651975824601422,-1.4350899529368684
4.31,-0.22141989853620017,-1.4057691593467847
4.32,-0.21867914210270634,-1.4660396795041788
4.33,-0.21544006631766816,-1.4660396795041788
4.34,-0.21668586469652898,-1.4660396795041788
4.35,-0.21789013646276112,-1.4350899529368684
4.36,-0.2220012711130019,-1.4350899529368684
4.37,-0.2235377557802636,-1.3438697062121638
4.38,-0.21971730741842369,-1.4660396795041788
4.39,-0.22079699934676975,-1.4969894060714892
4.4,-0.22291485659083318,-1.4969894060714892
4.41,-0.2227902767529471,-1.4660396795041788
4.42,-0.20414482768266318,-1.4660396795041788
4.43,-0.18068229154745066,-1.4969894060714892
4.44,-0.1551849513934321,-1.5263101996615727
4.45,-0.10697255413151757,-1.4350899529368684
4.46,-0.0831778050952755,-1.5263101996615727
4.47,-0.08409139057310679,-1.4969894060714892
4.48,-0.0918568671346727,-1.4969894060714892
4.49,-0.12910623866261184,-1.4057691593467847
4.5,-0.19426149387703384,-1.4969894060714892
4.51,-0.24139419921060234,-1.4057691593467847
4.52,-0.2533123370350377,-1.4350899529368684
4.53,-0.2586277434515106,-1.3748194327794743
4.54,-0.27420022318727116,-1.5882096527961935
4.55,-0.285786148110677,-1.4969894060714892
4.56,-0.3610323701938718,-1.5263101996615727
4.57,-0.484781675827382,-1.4057691593467847
4.58,-0.0996223436962386,-1.4969894060714892
4.59,0.985883310417841,-1.4350899529368684
4.6,1.425774717993604,-1.4660396795041788
4.61,0.4362370656644379,-1.4660396795041788
4.62,-0.4923810459384331,-1.4969894060714892
4.63,-0.5114832877476327,-1.4969894060714892
4.64,-0.3457505767465121,-1.4969894060714892
4.65,-0.3100792164984634,-1.4350899529368684
4.66,-0.2992407706023741,-1.4969894060714892
4.67,-0.2859522545611918,-1.4660396795041788
4.68,-0.279391049765858,-1.4969894060714892
4.69,-0.2598735418303715,-1.4057691593467847
4.7,-0.251775852367776,-1.4660396795041788
4.71,-0.24903509593428216,-1.4057691593467847
4.72,-0.23117865250394343,-1.4350899529368684
4.73,-0.20858817523393353,-1.4660396795041788
4.74,-0.1916453172814261,-1.4350899529368684
4.75,-0.16220294892768153,-1.4350899529368684
4.76,-0.12665616851751885,-1.5263101996615727
4.77,-0.09156618084627183,-1.4660396795041788
4.78,-0.045762327116821565,-1.4969894060714892
4.79,0.006727311245848543,-1.4660396795041788
4.8,0.07707339303885738,-1.4969894060714892
4.81,0.1600850916836181,-1.3748194327794743
4.82,0.24812151045645087,-1.4969894060714892
4.83,0.33399854537259155,-1.4350899529368684
4.84,0.41335590210602713,-1.4660396795041788
4.85,0.4713270533356849,-1.4660396795041788
4.86,0.4974472926791339,-1.4969894060714892
4.87,0.5042991837628685,-1.4660396795041788
4.88,0.4707456807588832,-1.5263101996615727
4.89,0.4019360836331361,-1.3748194327794743
4.9,0.2876133190663395,-1.5263101996615727
4.91,0.16145546990036502,-1.4057691593467847
4.92,0.05140994643432405,-1.557259926228883
4.93,-0.042564777944412074,-1.4969894060714892
4.94,-0.11781100002760689,-1.4969894060714892
4.95,-0.1693870529124457,-1.4350899529368684
4.96,-0.19592255838218162,-1.4660396795041788
4.97,-0.20277444946591625,-1.3748194327794743
4.98,-0.20659489782775617,-1.4969894060714892
4.99,-0.20979244700016567,-1.4057691593467847
5.0,-0.20842206878341873,-1.557259926228883
5.01,-0.20505841316049447,-1.4057691593467847
5.02,-0.1923927963087426,-1.5263101996615727
5.03,-0.18491800603557754,-1.4057691593467847
5.04,-0.1867867036038688,-1.4660396795041788
5.05,-0.18662059715335402,-1.4660396795041788
5.06,-0.18691128344175487,-1.5263101996615727
5.07,-0.19347248823708865,-1.4057691593467847
5.08,-0.20019979948293717,-1.4057691593467847
5.09,-0.21132893166742736,-1.4057691593467847
5.1,-0.21834692920167678,-1.4660396795041788
5.11,-0.21834692920167678,-1.4350899529368684
5.12,-0.22216737756351668,-1.4660396795041788
5.13,-0.2275243105926183,-1.4350899529368684
5.14,-0.21942662113002284,-1.4660396795041788
5.15,-0.21531548647978205,-1.4969894060714892
5.16,-0.22063089289625498,-1.5263101996615727
5.17,-0.22108768563517062,-1.3748194327794743
5.18,-0.21606296550709855,-1.5263101996615727
5.19,-0.22108768563517062,-1.3748194327794743
5.2,-0.2195927275805376,-1.5263101996615727
5.21,-0.2203402066078541,-1.4057691593467847
5.22,-0.21681044453441506,-1.4350899529368684
5.23,-0.2125747300462882,-1.4660396795041788
5.24,-0.21726723727333072,-1.5263101996615727
5.25,-0.21913593484162197,-1.4350899529368684
5.26,-0.21789013646276112,-1.4969894060714892
5.27,-0.22536492673592617,-1.3748194327794743
5.28,-0.22798110333153393,-1.4057691593467847
5.29,-0.2258217194748418,-1.4350899529368684
5.3,-0.22781499688101917,-1.4969894060714892
5.31,-0.22245806385191755,-1.4350899529368684
5.32,-0.22063089289625498,-1.4969894060714892
5.33,-0.21880372194059242,-1.4057691593467847
5.34,-0.2055152058994101,-1.5263101996615727
5.35,-0.17914580688018897,-1.4660396795041788
5.36,-0.14496940468677322,-1.5263101996615727
5.37,-0.09870875821840731,-1.4660396795041788
5.38,-0.06868501728786104,-1.4969894060714892
5.39,-0.07096898098243926,-1.4350899529368684
5.4,-0.08147521397749902,-1.4660396795041788
5.41,-0.12358319918299544,-1.4969894060714892
5.42,-0.1914792108309113,-1.5263101996615727
5.43,-0.23346261619852166,-1.4660396795041788
5.44,-0.24230778468843361,-1.4660396795041788
5.45,-0.2500732612499995,-1.4057691593467847
5.46,-0.2650643684089583,-1.4660396795041788
5.47,-0.2813843271720353,-1.4660396795041788
5.48,-0.3723276088288767,-1.4660396795041788
5.49,-0.4214535915686226,-1.3438697062121638
5.5,0.12312640644407981,-1.4350899529368684
5.51,1.1254957820755127,-1.3748194327794743
5.52,1.1725039075711952,-1.4350899529368684
5.53,0.06544594150282286,-1.3438697062121638
5.54,-0.604087633909622,-1.4660396795041788
5.55,-0.48826991128819236,-1.4057691593467847
5.56,-0.3318806881285281,-1.4660396795041788
5.57,-0.295711008528935,-1.4350899529368684
5.58,-0.28047074169420405,-1.4660396795041788
5.59,-0.2635278837416966,-1.3438697062121638
5.6,-0.2536030233234386,-1.4969894060714892
5.61,-0.24396884919358142,-1.4660396795041788
5.62,-0.23740764439824763,-1.4969894060714892
5.63,-0.21440190100195078,-1.3748194327794743
5.64,-0.19118852454251042,-1.4660396795041788
5.65,-0.18080687138533674,-1.3129199796448534
5.66,-0.1663140835779223,-1.4660396795041788
5.67,-0.13139020235719007,-1.4350899529368684
5.68,-0.08529566233933893,-1.4660396795041788
5.69,-0.05294643110158575,-1.4350899529368684
5.7,-0.012374930563351023,-1.4969894060714892
5.71,0.047132705333568496,-1.3129199796448534
5.72,0.1185584790549234,-1.557259926228883
5.73,0.2087542816844483,-1.4660396795041788
5.74,0.298161078674028,-1.3748194327794743
5.75,0.3822524692471348,-1.4660396795041788
5.76,0.4527231308780297,-1.4350899529368684
5.77,0.5009355281399442,-1.4057691593467847
5.78,0.5186258651197682,-1.4660396795041788
5.79,0.5097806966298563,-1.4660396795041788
5.8,0.4730296444534614,-1.4969894060714892
5.81,0.3869449764741773,-1.4350899529368684
5.82,0.27390953689887027,-1.4969894060714892
5.83,0.16614797712740753,-1.3438697062121638
5.84,0.05797115122965781,-1.5263101996615727
5.85,-0.04119439972766515,-1.4057691593467847
5.86,-0.1129108597374209,-1.5263101996615727
5.87,-0.15410525946508605,-1.4350899529368684
5.88,-0.17989328590750547,-1.3748194327794743
5.89,-0.1923927963087426,-1.4057691593467847
5.9,-0.19255890275925736,-1.4969894060714892
5.91,-0.19347248823708865,-1.4057691593467847
5.92,-0.19010883261416436,-1.4969894060714892
5.93,-0.18616380441443836,-1.4660396795041788
5.94,-0.1844612132966619,-1.3748194327794743
5.95,-0.1780661149518429,-1.3748194327794743
5.96,-0.1803500786464211,-1.4350899529368684
5.97,-0.1875341826311853,-1.4057691593467847
5.98,-0.19529965919275122,-1.4660396795041788
5.99,-0.20127949141128323,-1.4350899529368684
6.0,-0.20049048577133805,-1.5263101996615727
6.01,-0.20368803494374754,-1.4350899529368684
6.02,-0.20858817523393353,-1.4969894060714892
6.03,-0.2171426574354446,-1.3748194327794743
6.04,-0.22553103318644097,-1.4660396795041788
6.05,-0.22079699934676975,-1.3438697062121638
6.06,-0.22187669127511583,-1.4969894060714892
6.07,-0.2244513412580949,-1.4350899529368684
6.08,-0.22627851221375747,-1.5263101996615727
6.09,-0.22569713963695573,-1.4660396795041788
6.1,-0.22399454851917924,-1.557259926228883
6.11,-0.22474202754649575,-1.4350899529368684
6.12,-0.2252403468980401,-1.5263101996615727
6.13,-0.21971730741842369,-1.4660396795041788
6.14,-0.21789013646276112,-1.4660396795041788
6.15,-0.22141989853620017,-1.3438697062121638
6.16,-0.22644461866427223,-1.6191593793635042
6.17,-0.2290192686472513,-1.4660396795041788
6.18,-0.23117865250394343,-1.4969894060714892
6.19,-0.22569713963695573,-1.4969894060714892
6.2,-0.2237038622307784,-1.4969894060714892
6.21,-0.22735820414210353,-1.4350899529368684
6.22,-0.22262417030243234,-1.4350899529368684
6.23,-0.21926051467950805,-1.3438697062121638
6.24,-0.2126993098841743,-1.4660396795041788
6.25,-0.1928911156602869,-1.4057691593467847
6.26,-0.1741210867521169,-1.4350899529368684
6.27,-0.14069216358601766,-1.4057691593467847
6.28,-0.0981273856416056,-1.4057691593467847
6.29,-0.08483886960042329,-1.4057691593467847
6.3,-0.09397472437873612,-1.4350899529368684
6.31,-0.11108368878175834,-1.4057691593467847
6.32,-0.16066646426041983,-1.557259926228883
6.33,-0.22781499688101917,-1.4057691593467847
6.34,-0.25268943784560727,-1.4969894060714892
6.35,-0.258170950712595,-1.4057691593467847
6.36,-0.2676390183919374,-1.4660396795041788
6.37,-0.28229791264986664,-1.4057691593467847
6.38,-0.3088334181196025,-1.5882096527961935
6.39,-0.4337869955193449,-1.4350899529368684
6.4,-0.3970359433429501,-1.5263101996615727
6.41,0.3751929451002567,-1.4350899529368684
6.42,1.3510268152619536,-1.5263101996615727
6.43,1.0560632857603351,-1.4057691593467847
6.44,-0.13076730316775964,-1.4969894060714892
6.45,-0.5995197065204655,-1.4350899529368684
6.46,-0.414601700484888,-1.557259926228883
6.47,-0.31281997293195724,-1.3748194327794743
6.48,-0.30625876813662345,-1.4969894060714892
6.49,-0.28977270292303164,-1.4350899529368684
6.5,-0.2722069457810938,-1.4660396795041788
6.51,-0.2665593264635913,-1.4350899529368684
6.52,-0.2619913990744349,-1.557259926228883
6.53,-0.2455053338608431,-1.4057691593467847
6.54,-0.2284378960704496,-1.4969894060714892
6.55,-0.2157722792186977,-1.3129199796448534
6.56,-0.1907317318035948,-1.5882096527961935
6.57,-0.15958677233207377,-1.3748194327794743
6.58,-0.12345861934510936,-1.4350899529368684
6.59,-0.09750448645217517,-1.4057691593467847
6.6,-0.061957706042012506,-1.5263101996615727
6.61,-0.006851891083734627,-1.4350899529368684
6.62,0.05523039479616396,-1.4969894060714892
6.63,0.12208824112836245,-1.3129199796448534
6.64,0.21149503811794215,-1.4350899529368684
6.65,0.30164931413483836,-1.3748194327794743
6.66,0.377186222506434,-1.4969894060714892
6.67,0.4388532422600457,-1.4660396795041788
6.68,0.4855291548546985,-1.5263101996615727
6.69,0.5087425313141388,-1.4660396795041788
6.7,0.4974472926791339,-1.557259926228883
6.71,0.4486119962277889,-1.3438697062121638
6.72,0.3593297790760953,-1.4350899529368684
6.73,0.24110351292220147,-1.4660396795041788
6.74,0.11781100002760689,-1.557259926228883
6.75,0.008679062039397193,-1.4057691593467847
6.76,-0.07325294467701747,-1.5263101996615727
6.77,-0.12894013221209707,-1.4057691593467847
6.78,-0.16847346743461442,-1.4660396795041788
6.79,-0.18662059715335402,-1.4057691593467847
6.8,-0.19193600356982693,-1.4350899529368684
6.81,-0.1962132446705825,-1.4057691593467847
6.82,-0.19272500920977215,-1.4057691593467847
6.83,-0.18234335605259847,-1.4057691593467847
6.84,-0.1741210867521169,-1.4350899529368684
6.85,-0.17470245932891865,-1.4660396795041788
6.86,-0.17457787949103254,-1.5263101996615727
6.87,-0.1695116327503318,-1.3748194327794743
6.88,-0.17777542866344204,-1.557259926228883
6.89,-0.18645449070283923,-1.4350899529368684
6.9,-0.1882816616585018,-1.4660396795041788
6.91,-0.19181142373194085,-1.3748194327794743
6.92,-0.19745904304944334,-1.4350899529368684
6.93,-0.2017362841501989,-1.3438697062121638
6.94,-0.20692711072878572,-1.4969894060714892
6.95,-0.20784069620661702,-1.4350899529368684
6.96,-0.20995855345068043,-1.557259926228883
6.97,-0.21469258729035165,-1.4350899529368684
6.98,-0.21224251714525866,-1.4660396795041788
6.99,-0.21896982839110718,-1.4057691593467847
7.0,-0.22324706949186274,-1.4057691593467847
7.01,-0.22291485659083318,-1.3748194327794743
7.02,-0.2171426574354446,-1.4350899529368684
7.03,-0.21942662113002284,-1.4350899529368684
7.04,-0.22461744770860967,-1.4057691593467847
7.05,-0.2282717896199348,-1.4057691593467847
7.06,-0.22171058482460104,-1.4350899529368684
7.07,-0.2180562429132759,-1.4660396795041788
7.08,-0.23009896057559737,-1.5263101996615727
7.09,-0.2316354452428591,-1.4057691593467847
7.1,-0.2212537920856854,-1.5263101996615727
7.11,-0.22324706949186274,-1.4057691593467847
7.12,-0.23329650974800686,-1.3748194327794743
7.13,-0.2378644371371633,-1.4057691593467847
7.14,-0.23454230812686772,-1.4660396795041788
7.15,-0.2244513412580949,-1.4660396795041788
7.16,-0.21207641069474387,-1.4660396795041788
7.17,-0.1891952471363331,-1.4969894060714892
7.18,-0.16373943359494322,-1.4969894060714892
7.19,-0.11747878712657733,-1.4660396795041788
7.2,-0.08500497605093807,-1.4969894060714892
7.21,-0.09933165740783774,-1.4660396795041788
7.22,-0.11872458550543817,-1.4969894060714892
7.23,-0.14878985304861314,-1.4660396795041788
7.24,-0.20356345510586146,-1.5263101996615727
7.25,-0.25451660880126986,-1.3748194327794743
7.26,-0.2617007127860341,-1.4969894060714892
7.27,-0.26871871032028344,-1.4350899529368684
7.28,-0.2864090473001074,-1.4660396795041788
7.29,-0.3027290060631844,-1.4350899529368684
7.3,-0.39047473854761633,-1.4660396795041788
7.31,-0.4910106677216862,-1.4350899529368684
7.32,-0.09002969617901012,-1.4969894060714892
7.33,0.9973031288907321,-1.4350899529368684
7.34,1.4340385139067142,-1.4969894060714892
7.35,0.4307555527974502,-1.4057691593467847
7.36,-0.5140579377306118,-1.4660396795041788
7.37,-0.5207852489764603,-1.5263101996615727
7.38,-0.3427191340246174,-1.4660396795041788
7.39,-0.31265386648144244,-1.4350899529368684
7.4,-0.3129445527698433,-1.4350899529368684
7.41,-0.3060926616861087,-1.4660396795041788
7.42,-0.2889836972830865,-1.4660396795041788
7.43,-0.2798478425047736,-1.557259926228883
7.44,-0.2572573652347637,-1.557259926228883
7.45,-0.24018992744437018,-1.4350899529368684
7.46,-0.23317192991012078,-1.4660396795041788
7.47,-0.2149832735787525,-1.4660396795041788
7.48,-0.19272500920977215,-1.557259926228883
7.49,-0.1623690553781963,-1.3748194327794743
7.5,-0.12283572015567894,-1.5263101996615727
7.51,-0.08375917767207723,-1.4350899529368684
7.52,-0.04273088439492685,-1.4969894060714892
7.53,0.013288516041182306,-1.3748194327794743
7.54,0.0949298364691961,-1.4350899529368684
7.55,0.1788135939791594,-1.4660396795041788
7.56,0.26946618934759997,-1.4660396795041788
7.57,0.35874840649929357,-1.4350899529368684
7.58,0.42967586086910414,-1.4660396795041788
7.59,0.484781675827382,-1.3748194327794743
7.6,0.5256853892666463,-1.5263101996615727
7.61,0.5235260054099542,-1.4057691593467847
7.62,0.48860212418922194,-1.557259926228883
7.63,0.4156398658006053,-1.4660396795041788
7.64,0.30488838991987655,-1.5263101996615727
7.65,0.17212780934593958,-1.4057691593467847
7.66,0.05265574481318489,-1.557259926228883
7.67,-0.038744329582572165,-1.5263101996615727
7.68,-0.11507024359411304,-1.4350899529368684
7.69,-0.1727091819227413,-1.4350899529368684
7.7,-0.19409538742651905,-1.5882096527961935
7.71,-0.20036590593345197,-1.3748194327794743
7.72,-0.20094727851025368,-1.4057691593467847
7.73,-0.20186086398808498,-1.4660396795041788
7.74,-0.19820652207675984,-1.5263101996615727
7.75,-0.18662059715335402,-1.4057691593467847
7.76,-0.1803500786464211,-1.4969894060714892
7.77,-0.1693870529124457,-1.4660396795041788
7.78,-0.16448691262225973,-1.557259926228883
7.79,-0.1671030892178675,-1.3748194327794743
7.8,-0.17320750127428564,-1.5263101996615727
7.81,-0.17927038671807505,-1.4057691593467847
7.82,-0.18097297783585153,-1.5263101996615727
7.83,-0.18645449070283923,-1.4660396795041788
7.84,-0.19484286645383556,-1.4969894060714892
7.85,-0.19791583578835897,-1.4969894060714892
7.86,-0.1960886648326964,-1.4660396795041788
7.87,-0.19667003740949812,-1.3129199796448534
7.88,-0.19820652207675984,-1.4969894060714892
7.89,-0.19804041562624505,-1.4969894060714892
7.9,-0.19529965919275122,-1.4057691593467847
7.91,-0.19637935112109728,-1.4969894060714892
7.92,-0.20414482768266318,-1.557259926228883
7.93,-0.2111628252169126,-1.3748194327794743
7.94,-0.21332220907360472,-1.4969894060714892
7.95,-0.20186086398808498,-1.3748194327794743
7.96,-0.1991201075545911,-1.4350899529368684
7.97,-0.20601352525095445,-1.3129199796448534
7.98,-0.21161961795582823,-1.4660396795041788
7.99,-0.2102492397390813,-1.4057691593467847
8.0,-0.19990911319453633,-1.4660396795041788
8.01,-0.17927038671807505,-1.3438697062121638
8.02,-0.1609986771614494,-1.557259926228883
8.03,-0.1350445442685152,-1.4350899529368684
8.04,-0.08346849138367636,-1.4350899529368684
8.05,-0.05082857385752232,66.28291177633838
8.06,-0.049458195640775394,66.37413202306308
8.07,-0.06058732782526558,66.03857182975435
8.08,-0.10298599931916287,65.91640185646233
8.09,-0.1716710166070239,65.6117913897209
8.1,-0.21161961795582823,65.06284097639545
8.11,-0.21452648083983686,64.78755130324411
8.12,-0.22735820414210353,64.29887141007605
8.13,-0.2415603056611171,63.99426094333463
8.14,-0.2523987515572064,63.87209097004261
8.15,-0.31892438498837533,63.56748050330119
8.16,-0.38254315553553564,63.50558105016657
8.17,0.02778130384859676,63.26124110358254
8.18,0.9449795969785768,62.62107044353238
8.19,1.1508270157790164,62.86541039011641
8.2,0.18691128344175487,62.25456052365634
8.21,-0.5572456148644542,61.9190003303476
8.22,-0.4928793652899775,61.88805060378029
8.23,-0.32058544949352313,61.552490410471556
8.24,-0.27237305223160857,61.15665969700543
8.25,-0.2569666789463628,61.125709970438116
8.26,-0.24293068387786404,60.69892953040468
8.27,-0.22690141140318787,60.33241961052864
8.28,-0.21759945017436028,60.301469883961325
8.29,-0.2055152058994101,59.9968594172199
8.3,-0.1939292809760043,59.84373971736058
8.31,-0.17868901414127333,59.69062001750125
8.32,-0.15398067962719997,59.2328898509005
8.33,-0.11307696618793568,59.20356905731042
8.34,-0.0791912502829208,58.714889164142356
8.35,-0.0502056746680919,58.74583889070967
8.36,-0.009592647517228478,58.83705913743437
8.37,0.037830744104740875,58.379328970833626
8.38,0.09841807193000646,58.28810872410892
8.39,0.16693698276735272,58.43959949099102
8.4,0.23819665003819285,57.83037855750817
8.41,0.32731276073937166,57.98186932439027
8.42,0.41215163033979496,57.95091959782296
8.43,0.47851115732044913,58.07308957111498
8.44,0.5246056973383002,57.890649077665564
8.45,0.5436664125348711,58.04376877752489
8.46,0.536191622261706,59.141669604175796
8.47,0.5011016345904591,61.125709970438116
8.48,0.41854672868461396,61.09476024387081
8.49,0.29982214317917577,61.125709970438116
8.5,0.1796025996191046,61.09476024387081
8.51,0.06972318260357842,65.15406122312015
8.52,-0.021053992602748216,70.2200427822957
8.53,-0.08637535426768499,75.8040250282294
8.54,-0.12312640644407981,80.93190604053957
8.55,-0.14251933454168023,87.00456817964132
8.56,-0.15198740222102264,86.21127781973185
8.57,-0.15775960137641118,84.19628772690221
8.58,-0.15883929330475727,81.35868648057301
8.59,-0.16523439164957623,78.97881540084457
8.6,-0.16801667469569878,77.08599528130695
8.61,-0.15352388688828433,75.8040250282294
8.62,-0.1483330603096975,74.49273398156177
8.63,-0.15028481110324615,73.85093438853438
8.64,-0.14816695385918272,73.0576440286249
8.65,-0.15273488124833914,72.29530339528273
8.66,-0.16893026017353008,71.53133382896334
8.67,-0.1725846020848552,70.83089264875578
8.68,-0.16830736098409965,69.48702294254362
8.69,-0.1664801900284371,69.02929277594286
8.7,-0.17059132467867785,69.09119222907749
8.71,-0.18188656331368283,69.12051302266758
8.72,-0.17927038671807505,68.32722266275809
8.73,-0.1797687060696194,67.53393230284861
8.74,-0.1844612132966619,66.70969221637182
8.75,-0.18645449070283923,66.40508174963038
8.76,-0.1820526697641976,65.64274111628822
8.77,-0.1803500786464211,65.12311149655285
8.78,-0.18159587702528196,64.78755130324411
8.79,-0.1835476278188306,64.48294083650269
8.8,-0.18537479877449317,64.39009165680076
8.81,-0.18188656331368283,64.45199110993538
8.82,-0.17121422386810828,64.32982113664336
8.83,-0.14982801836433052,64.45199110993538
8.84,-0.13761919425149427,64.36077086321067
8.85,-0.10481317027482544,64.8478218234015
8.86,-0.054150702867817896,64.72728078308671
8.87,-0.03342892316609924,64.8478218234015
8.88,-0.03263991752615404,64.72728078308671
8.89,-0.047298811784083274,64.87877154996882
8.9,-0.09642479452382911,65.09216176998554
8.91,-0.1704252182281631,65.15406122312015
8.92,-0.20829748894553266,64.72728078308671
8.93,-0.20979244700016567,64.87877154996882
8.94,-0.22245806385191755,64.23860088991866
8.95,-0.2384873363265937,64.45199110993538
8.96,-0.2604549144071732,63.99426094333463
8.97,-0.3803837716788435,63.56748050330119
8.98,-0.43029876005853457,63.139071130290525
8.99,0.16540049810009103,63.139071130290525
9.0,1.1833008268546557,63.10975033670044
9.01,1.2005758977081926,62.8344606635491
9.02,0.09688158726274475,62.25456052365634
9.03,-0.551431889096437,61.9190003303476
9.04,-0.43760744388118483,61.46127016374685
9.05,-0.3071723536144548,61.46127016374685
9.06,-0.2865751537506222,61.03448972371341
9.07,-0.2752799151156172,60.75920005056207
9.08,-0.2617007127860341,60.69892953040468
9.09,-0.2504054741510291,60.39269013068603
9.1,-0.2416848854990032,60.21024963723662
9.11,-0.23101254605342866,59.965909690652595
9.12,-0.211785724406343,59.63034949734386
9.13,-0.18554090522500796,59.72156974406856
9.14,-0.15975287878258854,59.539129250619155
9.15,-0.13595812974634647,59.17261933074311
9.16,-0.1074293468704332,59.17261933074311
9.17,-0.07628438739891218,59.26383957746781
9.18,-0.03861974974468608,58.77515968429975
9.19,0.01665217166410658,58.28810872410892
9.2,0.08500497605093807,58.28810872410892
9.21,0.15211198205890872,58.379328970833626
9.22,0.22810568316942004,57.890649077665564
9.23,0.32378299866593263,58.01281905095758
9.24,0.40513363280554554,57.85969935109826
9.25,0.466011646919212,57.95091959782296
9.26,0.5078289458363076,57.890649077665564
9.27,0.5255192828161315,58.34837924426631
9.28,0.5142240441811265,58.714889164142356
9.29,0.4629386775846886,60.301469883961325
9.3,0.36771815482709164,60.301469883961325
9.31,0.24504854112192748,60.45458958382065
9.32,0.1216314483894468,64.05453146349203
9.33,0.02134467889114908,68.78495282935884
9.34,-0.06270518506932901,74.18649458184312
9.35,-0.12055175646110074,79.43654556744531
9.36,-0.1536484667261704,87.40039889310745
9.37,-0.16602339728952145,86.57778773960788
9.38,-0.17470245932891865,85.47825797997976
9.39,-0.18387984071986016,85.50920770654706
9.4,-0.1796025996191046,85.44730825341244
9.41,-0.17320750127428564,83.89167726016079
9.42,-0.16847346743461442,81.26746623384831
9.43,-0.16448691262225973,79.49681608760271
9.44,-0.1591299795931581,77.84833591464911
9.45,-0.15638922315966428,76.69016456784081
9.46,-0.15900539975527203,74.91951442159521
9.47,-0.16112325699933547,74.58395422828649
9.48,-0.16523439164957623,73.790663868377
9.49,-0.17320750127428564,73.0576440286249
9.5,-0.17852290769075854,72.35557391544013
9.51,-0.1835476278188306,71.56228355553064
9.52,-0.18188656331368283,70.76899319562116
9.53,-0.1882816616585018,69.88448258898697
9.54,-0.19135463099302522,69.09119222907749
9.55,-0.1923927963087426,68.2669521426007
9.56,-0.18890456084793222,67.47366178269121
9.57,-0.19181142373194085,67.07620213624786
9.58,-0.19667003740949812,66.344811229473
9.59,-0.19426149387703384,65.97830130959696
9.6,-0.19637935112109728,65.54989193658629
9.61,-0.1984972083651607,65.64274111628822
9.62,-0.1960886648326964,65.54989193658629
9.63,-0.19102241809199566,65.64274111628822
9.64,-0.16373943359494322,65.6117913897209
9.65,-0.14588299016460451,65.54989193658629
9.66,-0.12528579030077194,65.91640185646233
9.67,-0.07645049384942695,65.6117913897209
9.68,-0.0384536432941713,65.94735158302964
9.69,-0.03583746669856353,66.00762210318703
9.7,-0.037249371527939154,65.94735158302964
9.71,-0.05934152944640474,66.03857182975435
9.72,-0.12449678466082673,66.31386150290568
9.73,-0.18981814632576352,65.94735158302964
9.74,-0.20995855345068043,65.97830130959696
9.75,-0.2244513412580949,66.03857182975435
9.76,-0.24413495564409618,65.58084166315359
9.77,-0.25771415797367936,65.54989193658629
9.78,-0.3002789359180914,65.12311149655285
9.79,-0.42967586086910414,64.8478218234015
9.8,-0.2832114981276979,64.48294083650269
9.81,0.5893041598138066,64.45199110993538
9.82,1.3557608491016249,63.99426094333463
9.83,0.7707339303885737,63.627751023458586
9.84,-0.3202947632051223,63.10975033670044
9.85,-0.5674611615711131,62.774190143391706
9.86,-0.3694207459448681,62.712290690257085
9.87,-0.29297025209544114,62.40768022351566
9.88,-0.28013852879317447,61.85710087721298
9.89,-0.2683864974192539,61.9190003303476
9.9,-0.25468271525178465,61.49221989031416
9.91,-0.24338747661677967,61.15665969700543
9.92,-0.2267353049526731,61.03448972371341
9.93,-0.21469258729035165,60.75920005056207
9.94,-0.19758362288732942,60.60608035070275
9.95,-0.17823222140235767,60.42363985725334
9.96,-0.1592960860436729,60.27052015739402
9.97,-0.13001982414044314,60.36174040411872
9.98,-0.09750448645217517,60.27052015739402
9.99,-0.06407556328607593,59.9968594172199
