time_s,ECG1,ECG2,NIBP
0.0,-0.2650765974805326,-0.03838432906252104,70.72840521333303
0.01,-0.24109199347818122,-0.05855711513917443,70.22399299005377
0.02,-0.17381050692613065,0.020172786076653394,69.72964385352321
0.03,-0.24701027238785234,-0.0720056391902767,69.3371834703234
0.04,-0.22614055202216998,-0.007284617194347059,69.0113910368338
0.05,-0.22084524983983267,-0.0680831530087052,68.67553551659547
0.06,-0.25635492329785936,-0.03838432906252104,68.29439610598796
0.07,-0.22022227311249887,-0.04370770316608235,67.92331978212914
0.08,-0.1987295760194827,0.0033621310127755653,67.55350134411393
0.09,-0.16913818147112714,-0.011207103375918551,67.13839901572949
0.1,-0.21336952911182705,-0.002521598259581674,66.74593863252966
0.11,-0.1548097167424497,-0.004763018934765384,66.35222036348624
0.12,-0.18564706474547288,-0.007844972363142987,66.02768581584023
0.13,-0.14608804255977648,0.01260799129790837,65.84780814020698
0.14,-0.08410185819006322,0.06696244267111334,66.01636484324793
0.15,-0.12179195019375821,0.04903107726964366,67.5082174537447
0.16,-0.12397236873942652,0.06920386334629705,72.61397609287323
0.17,-0.0386245570946957,0.06584173233352149,82.15126655896648
0.18,-0.05513344036904144,0.1260799129790837,93.31500342082056
0.19,-0.012148046183009131,0.11319174409677736,102.39190766816016
0.2,-0.033017766548691485,0.12664026814787963,108.49516978125492
0.21,0.017443348365346445,0.08545416324137896,112.59084608798132
0.22,-0.004983813818670413,0.06051835822996018,114.83491443294443
0.23,0.0040493487276697104,0.057716582385980535,115.3393266562237
0.24,-0.09375799746373714,0.007844972363142987,114.54308491723174
0.25,-0.13798934510443706,-0.0650011995803276,112.5241781382711
0.26,-0.10777497382874768,0.026897048102204522,108.61844259392666
0.27,-0.1548097167424497,-0.08937664942295044,102.77304707876769
0.28,-0.16508883274345743,-0.04202663765969457,96.14273079720905
0.29,-0.12677576401242863,-0.05631569446399072,89.7136762506247
0.3,-0.1554326934697835,-0.029138468777388234,84.57395469371926
0.31,-0.0763146490983907,-0.010646748207122624,81.2531360666438
0.32,-0.17505646038079825,-0.0650011995803276,79.44681199524972
0.33,-0.0763146490983907,-0.05939764789236832,78.77384306892951
0.34,-0.08908567200873363,-0.0008405327531938913,78.62792831107316
0.35,-0.10590604364674627,-0.05631569446399072,78.37006171313737
0.36,-0.11120134582908359,-0.03194024462136787,77.70715587356587
0.37,-0.0800525094623935,-0.03950503940011289,76.49581180618948
0.38,-0.06323213782438086,-0.023254739505030993,75.02534325503372
0.39,-0.06728148655205057,-0.011767458544714478,73.80267821506501
0.4,-0.08223292800806181,0.0033621310127755653,72.99511550348076
0.41,-0.12272641528475892,-0.08069114430661357,72.4907032802015
0.42,-0.09157757891806884,-0.024655627427020814,72.06427997922476
0.43,-0.10247967164641036,-0.0680831530087052,71.49194192039168
0.44,-0.08815120691773293,-0.03446184288094954,70.6164533732536
0.45,-0.03426372000335909,-0.02969882394618416,69.77492774389243
0.46,0.03488669673069289,0.021293496414245248,69.3824673606926
0.47,0.040804975640364005,-0.049871610022837555,69.64033395862839
0.48,0.05170706836870553,0.07284617194347058,70.63909531843821
0.49,-0.05046111491403793,-0.006444084441153167,72.09698501115808
0.5,-0.06260916109704706,-0.0030819534283776017,73.73601026535479
0.51,-0.08285590473539561,-0.03782397389372511,75.45176655601045
0.52,-0.1535637632877821,-0.05351391862001108,77.11343375539177
0.53,-0.13798934510443706,-0.06219942373634796,78.76252209633721
0.54,-0.13674339164976945,-0.04426805833487828,80.36632654691343
0.55,-0.1164966480114209,-0.05463462895760294,81.5223236371719
0.56,-0.15076036801478,-0.0720056391902767,82.01667277370244
0.57,-0.1576131120154518,-0.06668226508671538,81.85943704325379
0.58,-0.10652902037408007,-0.037263618724929184,81.16382617174897
0.59,-0.16758073965279263,-0.09638108903289953,80.27701665201859
0.6,-0.12802171746709623,-0.02213402916743914,79.37888615969591
0.61,-0.2800280389365438,-0.13672666118620633,78.48201355321682
0.62,-0.12397236873942652,-0.0193322533234595,77.483252193407
0.63,0.4230011978596513,0.1440112783805534,76.40650191129465
0.64,1.3680568932250283,0.47293976246376285,75.33981471593101
0.65,0.47875761495602653,0.13364470775782872,74.30834832418788
0.66,-0.18782748329114118,0.040905927322102714,73.4102178318652
0.67,-0.10839795055608148,-0.052393208282419224,72.71460696036037
0.68,-0.041116464004030906,-0.020452963661051357,72.13094792893499
0.69,-0.08347888146272942,-0.0742470598654604,71.62653570565573
0.7,-0.028345441093687973,-0.015129589557490044,71.18879143208669
0.71,-0.09033162546340123,-0.06976421851509298,70.73972618592533
0.72,-0.052018556732372434,-0.0680831530087052,70.22399299005377
0.73,-0.03519818509435979,-0.03194024462136787,69.62901298603609
0.74,-0.06665850982471677,-0.03025917911498009,69.00132795008508
0.75,-0.04734623127736892,-0.06976421851509298,68.47301589577762
0.76,0.03488669673069289,-0.002521598259581674,68.06923453998549
0.77,-0.04391985927703301,-0.052393208282419224,67.7774050242728
0.78,-0.01900079018368095,-0.018211542985867645,67.4742545359678
0.79,-0.020869720365682354,-0.03950503940011289,67.09311512536027
0.8,-0.003426372000335909,-0.020452963661051357,66.62266581985791
0.81,0.020558232002015453,-0.005883729272357239,66.16227960110427
0.82,0.06167469600604636,0.021293496414245248,65.9371180351018
0.83,0.028033952730021072,-0.025776337764612668,66.44278814422466
0.84,0.10870943891974838,0.05071214277603144,69.3371834703234
0.85,0.13923529855910466,0.08881629425415452,76.60776364626892
0.86,0.13238255455843284,0.07901007880022579,87.51363391018721
0.87,0.14920292619644548,0.08545416324137896,97.99308087312876
0.88,0.20433636656548693,0.12243760438191018,105.63473737293309
0.89,0.21866483129416436,0.139248259445788,110.79584298917955
0.9,0.24607580729685163,0.11151067859038959,114.06131463913708
0.91,0.17599092547179895,0.057716582385980535,115.50788335926465
0.92,0.1551212051061166,-0.03194024462136787,115.44121540955443
0.93,0.08783971855406603,-0.020452963661051357,114.12798258884732
0.94,0.13518594983143495,0.013168346466704298,111.64868959113302
0.95,0.06260916109704706,-0.04426805833487828,107.23854182350931
0.96,0.0778720909167252,-0.038944684231316966,101.40446728094264
0.97,0.03488669673069289,-0.05631569446399072,95.06472262925313
0.98,0.06977339346138578,-0.04763018934765384,88.99542343393527
0.99,0.040181998913030204,-0.08713522874776673,84.27080420541427
1.0,0.0794295327350597,-0.05995800306116425,81.29841995701301
1.01,0.055756417096375244,-0.06332013407393981,79.83927237844955
1.02,0.14702250765077718,-0.026336692933408595,79.42417005006511
1.03,0.08877418364506673,-0.03782397389372511,79.41284907747281
1.04,0.09282353237273644,-0.03334113254335769,79.23297140183956
1.05,0.0766261374620576,-0.061078713398756104,78.50465549840142
1.06,0.1174311131024216,-0.033901487712153615,77.14613878732509
1.07,0.11213581092008429,-0.021013318829847284,75.71089103978983
1.08,0.09002013709973433,-0.04763018934765384,74.58885686730827
1.09,0.0389360454583626,-0.04370770316608235,73.97123491810598
1.1,0.1155621829204202,-0.04538876867247013,73.60141648009075
1.11,0.044854324368033716,-0.04594912384126606,73.15235123392941
1.12,0.12584129892142792,-0.0019612430907857466,72.29950463197594
1.13,0.018066325092680247,-0.07144528402148076,71.28942229957381
1.14,0.0760031607347238,-0.05351391862001108,70.43657569762034
1.15,0.024607580729685163,-0.08069114430661357,70.13342520931535
1.16,0.10964390401074908,-0.061078713398756104,70.57116948288439
1.17,0.12490683383042722,-0.006444084441153167,71.71584560055055
1.18,0.1968606458374813,-0.017651187817071718,73.05172036644227
1.19,0.16820371638012643,-0.017651187817071718,74.3636953013058
1.2,0.18066325092680247,0.024095272258224883,75.6316442316437
1.21,0.09188906728173574,-0.0036423085971735293,77.11343375539177
1.22,0.17131860001679544,0.037543796309327145,78.76252209633721
1.23,0.0395590221856964,-0.06219942373634796,80.38896849209803
1.24,0.02273865054768376,-0.05687604963278665,81.5676075275411
1.25,0.0071642323643387185,-0.06275977890514389,82.01667277370244
1.26,-0.0021804185456683056,-0.10142428555206288,81.76886926251537
1.27,-0.03052585963935628,-0.0834929201505932,80.93866460574651
1.28,0.0006229767273338016,-0.07312634952786855,79.9851871363059
1.29,-0.025853534184352767,-0.07592812537184818,79.08705664398322
1.3,0.0395590221856964,-0.077329013293838,78.23546792787333
1.31,-0.0028033952730021072,-0.06920386334629705,77.24802754065581
1.32,-0.06603553309738297,-0.08825593908535859,76.18134034529218
1.33,-0.16695776292545883,-0.11431245443436922,75.0039591956927
1.34,0.0791180443713928,-0.051832853113623296,73.85928307802654
1.35,0.7506869564372309,0.2574832000617287,72.82655880043981
1.36,1.592328515065197,0.4541678643090993,72.01899608885554
1.37,0.14577655419610958,0.06696244267111334,71.40137413965326
1.38,-0.008098697455339421,0.07452723744985837,70.86299899859708
1.39,0.02336162727501756,-0.07368670469666447,70.42525472502804
1.4,0.06852744000671818,-0.038944684231316966,70.11204114997433
1.41,0.03208330145769078,-0.038944684231316966,69.85291666619496
1.42,0.08410185819006322,-0.028578113608592304,69.52838211854895
1.43,-0.037067115276361196,-0.1269204457322776,69.0453539546107
1.44,0.08472483491739702,-0.02381509467382692,68.46169492318532
1.45,0.021492697093016155,-0.046509479010061985,68.00256659027526
1.46,0.05855981236937735,-0.06976421851509298,67.74469999233948
1.47,0.028656929457354874,-0.04706983417885791,67.53085939892931
1.48,0.09282353237273644,-0.06388048924273575,67.22770891062432
1.49,0.0006229767273338016,-0.049871610022837555,66.78996463705528
1.5,0.13238255455843284,-0.022694384336235066,66.27423144118372
1.51,-0.01557441818334504,-0.06332013407393981,65.75849824531214
1.52,0.13051362437643144,0.01484941197309208,65.35471688952002
1.53,0.03550967345802669,-0.029138468777388234,65.15219726870215
1.54,0.12148046183009131,0.01484941197309208,65.2754700813739
1.55,0.08783971855406603,0.024655627427020814,66.48681414875028
1.56,0.17225306510779614,0.037543796309327145,71.10954462394056
1.57,0.16540032110712433,0.07396688228106243,80.46821530024414
1.58,0.2280094822041714,0.09582073386410361,92.09233838085186
1.59,0.18689301820014048,0.10226481830525677,101.83089058191938
1.6,0.2775361320272086,0.10338552864284864,108.4511437767293
1.61,0.20309041311081932,0.1120710337591855,112.89399657628631
1.62,0.32550534003191134,0.12019618370672645,115.29530065169808
1.63,0.16072799565212081,0.021293496414245248,116.11418433587464
1.64,0.20838571529315664,-0.009526037869530768,115.54184627704156
1.65,0.12241492692109202,-0.02157367399864321,113.81351112795001
1.66,0.1566786469244511,-0.02521598259581674,110.6499282313232
1.67,0.0760031607347238,-0.04202663765969457,105.43221775211524
1.68,0.13767785674077015,-0.04931125485404163,99.14907796338723
1.69,0.040181998913030204,-0.061078713398756104,92.67473952643365
1.7,0.11307027601108499,-0.07536777020305226,87.07588963661817
1.71,0.07257678873438789,-0.046509479010061985,83.02549722026097
1.72,0.1551212051061166,-0.04706983417885791,80.60280908550818
1.73,0.07319976546172169,-0.05463462895760294,79.53612189014456
1.74,0.1510718563784469,-0.06051835822996018,79.26693431961647
1.75,0.09531543928207165,-0.06668226508671538,79.22165042924726
1.76,0.16197394910678842,-0.03446184288094954,78.86315296382433
1.77,0.08659376509939842,-0.03194024462136787,77.95495938475294
1.78,0.17474497201713135,-0.04706983417885791,76.45052791582027
1.79,0.04641176618636822,-0.06612190991791946,74.95867530532348
1.8,0.17817134401746726,-0.02213402916743914,73.94859297292136
1.81,0.028968417821021775,-0.07480741503425632,73.4668226948267
1.82,0.16477734437979052,-0.03502219804974547,73.14103026133711
1.83,0.05824832400571045,-0.06444084441153167,72.70328598776807
1.84,0.14982590292377929,-0.04706983417885791,71.8844023035915
1.85,0.044854324368033716,-0.05855711513917443,70.82903608082017
1.86,0.12303790364842582,-0.05407427378880701,70.0101523966436
1.87,0.056379393823709045,-0.08993700459174638,69.84285357944624
1.88,0.1149392061930864,-0.05687604963278665,70.40387066568702
1.89,0.03488669673069289,-0.05575533929519479,71.5812518152865
1.9,0.10279116001007726,-0.09470002352651176,72.82655880043981
1.91,0.02273865054768376,-0.05939764789236832,74.00519783588288
1.92,0.17349901856246375,-0.0325005997901638,75.37377763370792
1.93,0.07133083527972028,-0.06668226508671538,76.86563024420471
1.94,0.21243506402082635,-0.03025917911498009,78.4480506354399
1.95,0.16882669310746024,-0.00896568270073484,79.81663043326495
1.96,0.20495934329282073,-0.03334113254335769,80.69211898040302
1.97,0.09687288110040615,-0.038944684231316966,80.96130655093111
1.98,0.20246743638348552,0.03810415147812307,80.66947703521842
1.99,0.012771022910342933,-0.08825593908535859,79.9851871363059
2.0,0.13643190328610255,-0.02745740327100045,79.21158734249855
2.01,-0.021492697093016155,-0.06976421851509298,78.45937160803221
2.02,0.05108409164137173,-0.09582073386410361,77.58388306089412
2.03,-0.03457520836702599,-0.07480741503425632,76.60776364626892
2.04,0.1149392061930864,-0.052393208282419224,75.44170346926174
2.05,-0.08503632328106392,-0.12019618370672645,74.28570637900327
2.06,0.06728148655205057,-0.05631569446399072,73.18631415170631
2.07,0.005295302182337314,-0.03334113254335769,72.24289976901443
2.08,0.06634702146104987,-0.07592812537184818,71.43533705743016
2.09,-0.17630241383546585,-0.1120710337591855,70.78501007629455
2.1,-0.04267390582236541,-0.07144528402148076,70.23531396264607
2.11,0.41147612840397596,0.08013078913781764,69.74096482611553
2.12,1.4745859135991084,0.4594912384126606,69.29189957995418
2.13,0.7326206313445507,0.13476541809542059,68.79880832926722
2.14,-0.03582116182169359,0.06163906856755203,68.38370600088278
2.15,-0.04921516145937033,-0.05463462895760294,68.12583940294701
2.16,0.10684050873774698,-0.02745740327100045,68.01388756286757
2.17,-0.02709948763902037,-0.07256599435907261,67.83400988723432
2.18,0.08379036982639632,-0.07088492885268484,67.57614328929853
2.19,-0.03114883636669008,-0.055194984126398866,67.1836829060987
2.2,0.07039637018871958,-0.06612190991791946,66.8352485274245
2.21,-0.018377813456347147,-0.0650011995803276,66.5320980391195
2.22,0.09469246255473784,-0.0325005997901638,66.33083630414522
2.23,-0.01152506945567533,-0.06219942373634796,66.05032776102483
2.24,0.06852744000671818,-0.05631569446399072,65.66793046457373
2.25,-0.0028033952730021072,-0.007844972363142987,65.2641491087816
2.26,0.05046111491403793,-0.05351391862001108,64.79369980327924
2.27,-0.052018556732372434,-0.04202663765969457,64.3785974748948
2.28,0.09593841600940545,-0.011207103375918551,64.10815201852313
2.29,-0.026476510911686568,-0.011207103375918551,64.01884212362829
2.3,0.12895618255809693,-0.016530477479479864,64.01884212362829
2.31,0.016508883274345743,0.02297456192063303,64.3559555297102
2.32,0.19966404111048341,0.06051835822996018,66.67801279697585
2.33,0.014639953092344338,0.015409767141888008,73.92595102773676
2.34,0.20776273856582284,0.09413966835771582,85.42680129567273
2.35,0.09936478800974136,0.08013078913781764,96.9163305910164
2.36,0.20994315711149114,0.11627369752515497,105.19699309936405
2.37,0.12646427564876173,0.12355831471950203,110.58200239576938
2.38,0.25822385347986077,0.11263138892798144,114.116661616255
2.39,0.17225306510779614,0.11263138892798144,115.6311561719364
2.4,0.17131860001679544,-0.002521598259581674,115.55316724963386
2.41,0.078495067644059,0.040905927322102714,114.13930356143962
2.42,0.07538018400739,-0.026336692933408595,111.5807637555792
2.43,-0.05855981236937735,-0.0680831530087052,106.8913653306787
2.44,0.08783971855406603,-0.0193322533234595,100.63086748713529
2.45,-0.05326451018704004,-0.04763018934765384,93.89866245224594
2.46,0.04952664982303723,-0.03502219804974547,87.77150050812298
2.47,-0.07195381200705409,-0.06864350817750113,83.1160650009994
2.48,0.07319976546172169,-0.031379889452571946,80.23173276164938
2.49,-0.07133083527972028,-0.057436404801582575,78.84051101863973
2.5,0.09687288110040615,-0.005883729272357239,78.23546792787333
2.51,-0.07413423055272239,-0.0650011995803276,78.10087414260929
2.52,0.05855981236937735,-0.05939764789236832,77.71847684615817
2.53,-0.007475720728005619,-0.029138468777388234,76.83292521227138
2.54,0.052330045096039335,-0.04819054451644977,75.35113568852331
2.55,-0.021492697093016155,-0.011767458544714478,73.82532016024963
2.56,0.055756417096375244,-0.014008879219898188,72.53472928472712
2.57,-0.06946190509771888,-0.04062574973770475,71.81647646803769
2.58,0.037378603640028096,-0.05939764789236832,71.49194192039168
2.59,-0.026476510911686568,-0.006444084441153167,71.2340753224559
2.6,0.030214371275689378,-0.06388048924273575,70.66173726362281
2.61,-0.09220055564540264,-0.03838432906252104,69.65165493122069
2.62,0.026165022548019667,-0.05295356345121515,68.22647027043413
2.63,-0.09033162546340123,-0.048750899685245694,67.20506696543971
2.64,0.0012459534546676032,-0.05631569446399072,67.31827669136274
2.65,-0.08503632328106392,-0.044828413503674204,68.37238502829048
2.66,-0.022427162184016858,-0.09329913560452194,70.10072017738203
2.67,-0.10154520655540966,-0.026336692933408595,71.69320365536595
2.68,0.10902092728341528,-0.0014008879219898189,73.00643647607306
2.69,-0.07195381200705409,-0.04931125485404163,74.18381762567255
2.7,0.10403711346474487,-0.009526037869530768,75.66560714942061
2.71,0.06385511455171466,0.028858291192990267,77.33733743555065
2.72,0.04142795236769781,-0.031379889452571946,78.87447393641663
2.73,-0.06728148655205057,0.011487280960316515,79.87323529622645
2.74,0.03208330145769078,-0.0030819534283776017,80.08581800379304
2.75,-0.12926767092176383,-0.04706983417885791,79.74996248355471
2.76,-0.06354362618804776,-0.08713522874776673,78.95246285871917
2.77,-0.17381050692613065,-0.061078713398756104,78.1335791745426
2.78,-0.04236241745869851,-0.057436404801582575,77.25934851324811
2.79,-0.17505646038079825,-0.08013078913781764,76.40650191129465
2.8,-0.0769376258257245,-0.08237220981300135,75.39641957889253
2.81,-0.17038413492579474,-0.04706983417885791,74.29702735159557
2.82,-0.06136320764237946,-0.061078713398756104,73.1297092887448
2.83,-0.20682827347482213,-0.07088492885268484,72.04163803404015
2.84,-0.09282353237273644,-0.05407427378880701,71.17747045949439
2.85,-0.3498014323979296,-0.115993519940757,70.44789667021264
2.86,0.10964390401074908,-0.04202663765969457,69.82021163426164
2.87,0.7821472811675879,0.29110451018948436,69.19126871246705
2.88,1.290807779035637,0.21853851583041176,68.67553551659547
2.89,-0.1906308785641433,0.028017758439796377,68.30571707858026
2.9,-0.09967627637340826,0.04426805833487828,68.03527162220858
2.91,-0.1554326934697835,-0.04706983417885791,67.8000469694574
2.92,-0.03114883636669008,-0.035582553218541396,67.56482231670623
2.93,-0.1906308785641433,-0.05631569446399072,67.31827669136274
2.94,-0.05544492873270834,-0.05407427378880701,66.96984231268854
2.95,-0.14484208910510887,-0.031379889452571946,66.61134484726561
2.96,-0.045165812731700616,-0.06275977890514389,66.2176265782222
2.97,-0.08098697455339421,0.0061639068567552035,65.88177105798388
2.98,-0.05388748691437384,-0.06332013407393981,65.53333667930968
2.99,-0.1588590654701194,-0.04931125485404163,65.20880213166367
3.0,-0.04672325455003512,-0.05995800306116425,64.9609986204766
3.01,-0.13923529855910466,-0.041186104906500674,64.62514310023829
3.02,-0.010902092728341528,-0.019892608492255427,64.31067163934098
3.03,-0.12864469419443003,0.007844972363142987,64.01884212362829
3.04,0.005918278909671115,-0.00896568270073484,63.738333580507906
3.05,-0.12802171746709623,-0.00896568270073484,63.49178795516442
3.06,0.02336162727501756,0.003922486181571493,63.34587319730807
3.07,-0.0781835792803921,0.024095272258224883,63.86160639317964
3.08,0.06572404473371607,0.028017758439796377,66.99248425787314
3.09,-0.020246743638348552,0.06219942373634796,74.86936541042866
3.1,0.10403711346474487,0.0680831530087052,86.12241216717756
3.11,0.02741097600268727,0.13420506292662465,96.9050096184241
3.12,0.14639953092344338,0.10394588381164456,104.3667884425952
3.13,0.08877418364506673,0.14793376456212487,109.14675464823411
3.14,0.191565343655144,0.08545416324137896,112.20970667737379
3.15,0.02273865054768376,0.04538876867247013,113.4776556077117
3.16,0.14110422874110606,0.024655627427020814,113.21978900977591
3.17,-0.06260916109704706,0.005043196519163348,111.5694427829869
3.18,0.0040493487276697104,-0.0904973597605423,108.69768940207277
3.19,-0.10372562510107797,-0.023254739505030993,103.62589368072115
3.2,0.025542045820685866,-0.02745740327100045,97.23080205191371
3.21,-0.13736636837710325,-0.06668226508671538,90.56526496673459
3.22,0.0018689301820014048,-0.05127249794482737,84.76515334194482
3.23,-0.06541255637004917,-0.02521598259581674,80.72608189817993
3.24,0.012148046183009131,-0.052393208282419224,78.25685198721435
3.25,-0.08036399782606041,-0.025776337764612668,77.25934851324811
3.26,0.0800525094623935,-0.02381509467382692,76.92223510716622
3.27,-0.10839795055608148,-0.05407427378880701,76.84298829902009
3.28,0.044854324368033716,-0.04370770316608235,76.33857607574083
3.29,-0.047969208004702724,-0.005883729272357239,75.18257898548237
3.3,0.020869720365682354,-0.07844972363142985,73.4441807496421
3.31,-0.10154520655540966,-0.04819054451644977,71.8730813309992
3.32,0.036755626912694295,-0.03025917911498009,71.36866910771994
3.33,-0.05949427746037805,0.003922486181571493,71.18879143208669
3.34,0.02273865054768376,-0.05575533929519479,70.87431997118938
3.35,-0.08752823019039913,-0.029138468777388234,70.10072017738203
3.36,0.005295302182337314,-0.048750899685245694,68.89943919675436
3.37,-0.10902092728341528,-0.06388048924273575,67.69941610197027
3.38,0.040804975640364005,-0.03194024462136787,66.93587939491162
3.39,-0.10559455528307937,-0.023254739505030993,66.80128560964758
3.4,0.005295302182337314,-0.049871610022837555,67.22770891062432
3.41,-0.10154520655540966,-0.055194984126398866,68.23779124302644
3.42,0.008098697455339421,-0.052393208282419224,69.359825415508
3.43,-0.06541255637004917,-0.04062574973770475,70.55984851029208
3.44,0.08410185819006322,-0.0325005997901638,71.8617603584069
3.45,0.02678799927535347,0.028017758439796377,73.51084869935232
3.46,0.11088985746541669,-0.020452963661051357,75.39641957889253
3.47,-0.04921516145937033,-0.015970122310683937,77.23670656806351
3.48,0.08783971855406603,0.01709083264827579,78.63924928366546
3.49,-0.08472483491739702,-0.030819534283776016,79.34618112776259
3.5,-0.012148046183009131,-0.05687604963278665,79.31221820998567
3.51,-0.13736636837710325,-0.04370770316608235,78.57132344811164
3.52,-0.016820371638012643,-0.07088492885268484,77.66312986904025
3.53,-0.18595855310913978,-0.0720056391902767,76.92223510716622
3.54,-0.018377813456347147,-0.07901007880022579,76.34989704833313
3.55,-0.1563671585607842,-0.05351391862001108,75.68824909460523
3.56,-0.003426372000335909,-0.06332013407393981,74.77879762969023
3.57,-0.16415436765245672,-0.05995800306116425,73.57877453490615
3.58,-0.04641176618636822,-0.10842872516201198,72.36617258168617
3.59,-0.21928780802149817,-0.041186104906500674,71.26678035438921
3.6,-0.1604165072884539,-0.09974322004567511,70.41393375243574
3.61,0.1949917156554799,0.020172786076653394,69.79756968907704
3.62,1.3244485223116622,0.4502453781275278,69.4051093058772
3.63,0.7790323975309189,0.16194264378202305,69.0113910368338
3.64,-0.13954678692277156,0.0056035516879592755,68.46169492318532
3.65,-0.09905329964607446,0.04146628249089864,68.01388756286757
3.66,0.037378603640028096,-0.077329013293838,67.62016929382415
3.67,-0.13207106619476594,-0.0579967599703785,67.35098172329606
3.68,-0.0009344650910007024,-0.03838432906252104,67.08179415276797
3.69,-0.12864469419443003,-0.07256599435907261,66.8805324177937
3.7,0.017443348365346445,-0.046509479010061985,66.62266581985791
3.71,-0.07070785855238648,0.0002801775843979638,66.28555241377602
3.72,0.02678799927535347,-0.08237220981300135,65.82516619502238
3.73,-0.09562692764573855,-0.020452963661051357,65.37610094886104
3.74,0.0383130687310288,-0.046509479010061985,65.10691337833295
3.75,-0.08877418364506673,-0.06444084441153167,64.86036775298946
3.76,0.02678799927535347,-0.037263618724929184,64.57985920986907
3.77,-0.08970864873606743,-0.016530477479479864,64.11947299111543
3.78,0.06260916109704706,-0.04763018934765384,63.69304969013869
3.79,-0.09033162546340123,-0.007844972363142987,63.31191027953117
3.8,0.0760031607347238,-0.014008879219898188,63.08800659937229
3.81,-0.033017766548691485,0.02073314124544932,63.24524232982094
3.82,0.13425148474043425,0.04202663765969457,64.90565164335867
3.83,-0.0028033952730021072,0.039224861815714926,70.57116948288439
3.84,0.17817134401746726,0.08209203222860338,80.83803373825937
3.85,0.08254441637172871,0.13420506292662465,92.75398633457978
3.86,0.20495934329282073,0.077329013293838,102.06611523467056
3.87,0.10466009019207867,0.14457163354934932,108.04736242093716
3.88,0.26071576038919597,0.09890268729248121,111.98454511137133
3.89,0.10964390401074908,0.0913378925137362,114.13930356143962
3.9,0.21866483129416436,0.04735001176325588,114.63239481212658
3.91,0.023984604002351362,0.003922486181571493,113.62357036556804
3.92,0.12895618255809693,-0.05407427378880701,111.52541677846128
3.93,-0.0056067905460042144,0.0028017758439796378,107.46370338951178
3.94,0.09624990437307235,-0.04314734799728642,101.40446728094264
3.95,-0.06478957964271537,-0.037263618724929184,94.6949041912379
3.96,0.11151283419275049,-0.020452963661051357,88.33251759436376
3.97,-0.024919069093352064,-0.023254739505030993,83.40789451671209
3.98,0.08472483491739702,-0.06556155474912352,80.36632654691343
3.99,-0.032394789821357683,-0.013448524051102261,78.84051101863973
4.0,0.12490683383042722,-0.06920386334629705,78.21282598268873
4.01,-0.017754836729013346,-0.03502219804974547,78.06691122483238
4.02,0.1526292981967814,-0.004763018934765384,77.75243976393509
4.03,-0.0392475338220295,-0.04931125485404163,76.81028326708677
4.04,0.14048125201377226,-0.019892608492255427,75.28446773881309
4.05,-0.004672325455003512,-0.005883729272357239,73.61273745268305
4.06,0.14328464728677437,-0.02157367399864321,72.23157879642213
4.07,-0.026476510911686568,-0.02521598259581674,71.43533705743016
4.08,0.11088985746541669,-0.04006539456890882,71.13218656912517
4.09,-0.020869720365682354,-0.0325005997901638,70.9196038615586
4.1,0.12895618255809693,-0.04314734799728642,70.48185958798956
4.11,-0.03457520836702599,-0.010646748207122624,69.61769201344379
4.12,0.1143162294657526,-0.06332013407393981,68.03527162220858
4.13,-0.04641176618636822,-0.030819534283776016,66.64404987919893
4.14,0.08659376509939842,-0.05995800306116425,66.28555241377602
4.15,-0.05451046364170764,-0.020452963661051357,66.73461765993736
4.16,0.10279116001007726,-0.04314734799728642,67.96860367249835
4.17,-0.06136320764237946,-0.03025917911498009,69.42649336521822
4.18,0.160105018924787,-0.05071214277603144,70.69444229555613
4.19,0.020558232002015453,-0.006444084441153167,71.74980851832746
4.2,0.20309041311081932,0.0056035516879592755,72.96115258570386
4.21,0.10154520655540966,0.03109971186817398,74.50961005916214
4.22,0.20309041311081932,0.020172786076653394,76.31593413055623
4.23,0.0040493487276697104,0.02073314124544932,77.90967549438373
4.24,0.10279116001007726,-0.02745740327100045,78.84051101863973
4.25,-0.0398705105493633,-0.024655627427020814,78.99774674908838
4.26,0.04173944073136471,-0.06275977890514389,78.38138268572968
4.27,-0.08410185819006322,-0.06275977890514389,77.39394229851216
4.28,0.024607580729685163,-0.06920386334629705,76.45052791582027
4.29,-0.08223292800806181,-0.051832853113623296,75.69957006719753
4.3,0.03426372000335909,-0.07088492885268484,75.04798520021832
4.31,-0.05388748691437384,-0.028578113608592304,74.27438540641097
4.32,0.0012459534546676032,-0.0742470598654604,73.26430307400885
4.33,-0.1171196247387547,-0.055194984126398866,72.05295900663246
4.34,0.0395590221856964,-0.06668226508671538,70.87431997118938
4.35,-0.24358390038751643,-0.08293256498179728,69.92084250174878
4.36,0.11213581092008429,-0.0650011995803276,69.21391065765165
4.37,0.8167224895346139,0.34545896156268935,68.70949843437239
4.38,1.6178705608858828,0.39645128192311874,68.34974308310588
4.39,0.004672325455003512,0.09470002352651176,68.05791356739319
4.4,0.03083734800302318,0.04314734799728642,67.74469999233948
4.41,-0.02305013891135066,0.00448284135036742,67.29563474617814
4.42,0.10497157855574557,-0.05127249794482737,66.8352485274245
4.43,-0.04672325455003512,-0.00896568270073484,66.40882522644776
4.44,0.11026688073808288,-0.057436404801582575,66.01636484324793
4.45,-0.06541255637004917,-0.04706983417885791,65.71321435494293
4.46,0.07444571891638929,-0.04931125485404163,65.46666872959945
4.47,-0.060740230915045657,-0.03446184288094954,65.20880213166367
4.48,0.12552981055776102,-0.04763018934765384,64.87168872558176
4.49,-0.028968417821021775,-0.008405327531938914,64.51319126015885
4.5,0.10964390401074908,-0.03194024462136787,64.04148406881289
4.51,-0.020869720365682354,0.0014008879219898189,63.660344658205375
4.52,0.10964390401074908,-0.016530477479479864,63.36851514249268
4.53,0.01931227854734785,0.013728701635500225,63.110648544556895
4.54,0.10746348546508078,-0.03334113254335769,62.85152406077752
4.55,-0.013705488001343635,0.026336692933408595,62.56095243090842
4.56,0.16789222801645953,0.007844972363142987,62.415037673052076
4.57,0.04578878945903442,0.05827693755477647,63.177316494267124
4.58,0.21056613383882494,0.03810415147812307,67.5082174537447
4.59,0.05513344036904144,0.07676865812504208,76.88827218938931
4.6,0.266945527662534,0.09301895802012397,88.84950867607893
4.61,0.17194157674412924,0.15269678349689025,99.10379407301801
4.62,0.32830873530491345,0.139248259445788,105.98191386576372
4.63,0.12148046183009131,0.13168346466704298,110.44740861050533
4.64,0.3538507811255993,0.09413966835771582,113.05123230673496
4.65,0.160105018924787,0.09890268729248121,113.92672085387304
4.66,0.2697489229355361,0.0028017758439796378,113.40972977215789
4.67,0.06323213782438086,0.017651187817071718,111.70403656825094
4.68,0.21118911056615874,0.006724262025551131,108.65240551170356
4.69,0.03146032473035698,-0.028578113608592304,103.57054670360323
4.7,0.1544982283787828,-0.06864350817750113,97.37671680977006
4.71,0.032706278185024584,0.00448284135036742,91.16024497075227
4.72,0.12303790364842582,-0.07480741503425632,85.83058265146487
4.73,0.059805765824044954,0.0033621310127755653,82.00535180111014
4.74,0.14733399601444408,-0.05995800306116425,79.77260442873933
4.75,0.059805765824044954,-0.0002801775843979638,78.72855917856029
4.76,0.23922306329617982,0.01709083264827579,78.25685198721435
4.77,0.04641176618636822,-0.03446184288094954,77.97634344409396
4.78,0.1968606458374813,-0.02213402916743914,77.26941159999683
4.79,0.07538018400739,-0.0002801775843979638,75.98007861031792
4.8,0.1903193902004764,-0.025776337764612668,74.31966929678018
4.81,0.05108409164137173,-0.002521598259581674,72.82655880043981
4.82,0.1579246003791187,-0.03334113254335769,71.44665803002246
4.83,-0.006229767273338016,-0.033901487712153615,70.53846445095107
4.84,0.17412199528979755,-0.04931125485404163,70.21267201746147
4.85,0.05451046364170764,0.0033621310127755653,70.07807823219743
4.86,0.13767785674077015,-0.07788936846263393,69.75228579870783
4.87,0.048903673095703426,-0.013448524051102261,68.96736503230817
4.88,0.1928112971098116,-0.02521598259581674,67.84533085982662
4.89,0.01526292981967814,-0.014569234388694117,66.92455842231932
4.9,0.16664627456179193,-0.04538876867247013,66.64404987919893
4.91,-0.009033162546340123,-0.042586992828490496,67.10443609795257
4.92,0.14515357746877577,-0.04931125485404163,68.20382832524953
4.93,0.06977339346138578,-0.007284617194347059,69.77492774389243
4.94,0.2311243658408404,-0.022694384336235066,71.33470618994303
4.95,0.116185159647754,0.011487280960316515,72.63661803805785
4.96,0.2650765974805326,-0.010646748207122624,73.83664113284193
4.97,0.14857994946911168,0.07620830295624614,75.13855298095675
4.98,0.16944966983479404,-0.022694384336235066,76.50713277878178
4.99,0.06572404473371607,0.030539356699378052,77.58388306089412
5.0,0.12552981055776102,-0.05575533929519479,78.1335791745426
5.01,-0.037067115276361196,-0.03838432906252104,78.17886306491182
5.02,0.08316739309906251,-0.07088492885268484,77.75243976393509
5.03,-0.04734623127736892,-0.06051835822996018,76.88827218938931
5.04,0.1168081363750878,-0.052393208282419224,75.88951082957949
5.05,-0.06354362618804776,-0.03838432906252104,74.94735433273118
5.06,0.06510106800638227,-0.07088492885268484,74.12847064855463
5.07,-0.004983813818670413,-0.014569234388694117,73.28694501919345
5.08,0.05170706836870553,-0.08657487357897081,72.40013549946308
5.09,-0.05949427746037805,-0.014569234388694117,71.41269511224556
5.1,-0.10497157855574557,-0.12944204399185927,70.38122872050242
5.11,-0.018377813456347147,-0.008405327531938914,69.44913531040284
5.12,0.8080008153519407,0.24291396567303458,68.75352443889801
5.13,1.5618026554258406,0.49955663298156944,68.22647027043413
5.14,0.3881145011289584,0.10562694931803235,67.7887259968651
5.15,-0.12241492692109202,0.08377309773499117,67.41890755884988
5.16,0.11961153164808991,-0.0193322533234595,67.07047318017567
5.17,0.02336162727501756,0.029979001530582125,66.76732269187067
5.18,0.09593841600940545,-0.0742470598654604,66.46543008940927
5.19,-0.02305013891135066,-0.026897048102204522,66.15095862851197
5.2,0.12552981055776102,-0.016530477479479864,65.79120327724546
5.21,-0.036444138549027394,-0.0193322533234595,65.45534775700715
5.22,0.078495067644059,-0.03334113254335769,65.14087629610985
5.23,0.037378603640028096,0.010086393038326697,64.86036775298946
5.24,0.06728148655205057,-0.06724262025551131,64.63646407283059
5.25,0.021492697093016155,0.023534917089428956,64.3559555297102
5.26,0.06572404473371607,-0.049871610022837555,64.00752115103599
5.27,-0.0021804185456683056,0.008405327531938914,63.60373979524386
5.28,0.10279116001007726,-0.013448524051102261,63.177316494267124
5.29,0.01993525527468165,0.015970122310683937,62.77353513847499
5.3,0.09687288110040615,0.009526037869530768,62.49302659535461
5.31,0.04236241745869851,0.077329013293838,62.42635864564438
5.32,0.17194157674412924,0.06976421851509298,63.008759791226176
5.33,0.03083734800302318,0.05127249794482737,66.03900678843253
5.34,0.17412199528979755,0.05071214277603144,73.49952772676002
5.35,0.12989064764909763,0.13868790427699207,84.40539799067831
5.36,0.18284366947247077,0.10562694931803235,95.07604360184543
5.37,0.17536794874446515,0.18379649536506423,102.67241621128055
5.38,0.21430399420282775,0.09834233212368529,107.5190503666297
5.39,0.14172720546843987,0.13812754910819613,110.57193930902066
5.4,0.2688144578445354,0.11095032342159365,112.04114997433284
5.41,0.04703474291370202,0.046229301425664025,112.05247094692514
5.42,0.12490683383042722,-0.019892608492255427,110.73923812621803
5.43,0.025542045820685866,0.029418646361786198,108.32787096405755
5.44,0.024919069093352064,-0.044828413503674204,103.98564903198766
5.45,-0.017754836729013346,0.00448284135036742,98.17295854876201
5.46,0.03488669673069289,-0.04763018934765384,91.95774459558781
5.47,-0.05855981236937735,-0.017651187817071718,86.31361081540312
5.48,0.05357599855070694,-0.030819534283776016,82.03805683304346
5.49,-0.05855981236937735,-0.026336692933408595,79.37888615969591
5.5,0.12833320583076313,0.025776337764612668,78.03294830705548
5.51,-0.05731385891470975,-0.03025917911498009,77.38262132591986
5.52,0.03613265018536049,-0.03614290838733733,77.04550791983796
5.53,-0.05731385891470975,-0.019892608492255427,76.48449083359718
5.54,0.05824832400571045,-0.033901487712153615,75.46308752860276
5.55,-0.016197394910678842,0.007284617194347059,73.98255589069828
5.56,0.052953021823373136,-0.017651187817071718,72.51208733954252
5.57,-0.05793683564204355,-0.02213402916743914,71.44665803002246
5.58,0.06572404473371607,0.009526037869530768,70.78501007629455
5.59,-0.12241492692109202,-0.05855711513917443,70.44789667021264
5.6,0.023984604002351362,-0.041186104906500674,70.12336212256663
5.61,-0.03052585963935628,0.006724262025551131,69.52838211854895
5.62,-0.004672325455003512,-0.04062574973770475,68.63025162622627
5.63,-0.06883892837038508,-0.013448524051102261,67.71073707456257
5.64,-0.026476510911686568,-0.0579967599703785,67.11575707054489
5.65,-0.08098697455339421,-0.04314734799728642,67.12707804313719
5.66,0.09406948582740404,0.02745740327100045,67.85665183241892
5.67,-0.03582116182169359,-0.010646748207122624,69.00132795008508
5.68,0.1174311131024216,0.018771898154663572,70.25795590783068
5.69,0.0024919069093352064,0.017651187817071718,71.5359679249173
5.7,0.08877418364506673,0.028017758439796377,72.98379453088846
5.71,-0.0800525094623935,0.00448284135036742,74.64420384442619
5.72,-0.03114883636669008,-0.026897048102204522,76.31593413055623
5.73,-0.10715199710141388,-0.019892608492255427,77.77508170911969
5.74,-0.09780734619140685,-0.0742470598654604,78.68327528819108
5.75,-0.16353139092512292,-0.02745740327100045,78.94239977197046
5.76,-0.09313502073640334,-0.07676865812504208,78.62792831107316
5.77,-0.18377813456347147,-0.00896568270073484,77.93231743956834
5.78,-0.10029925310074206,-0.06332013407393981,77.13481781473278
5.79,-0.17723687892646656,-0.04314734799728642,76.43920694322797
5.8,-0.0763146490983907,-0.026336692933408595,75.72221201238213
5.81,-0.20589380838382143,-0.057436404801582575,74.89074946976967
5.82,-0.1987295760194827,-0.06920386334629705,73.83664113284193
5.83,-0.2616502254801967,-0.02745740327100045,72.64668112480655
5.84,0.2716178531175375,0.024655627427020814,71.5359679249173
5.85,1.0905207611978198,0.3998134129358943,70.6277743458459
5.86,0.7447686775275598,0.14681305422453303,69.92084250174878
5.87,-0.320210037849574,0.033901487712153615,69.47177725558744
5.88,-0.12241492692109202,-0.00896568270073484,69.19126871246705
5.89,-0.12646427564876173,0.00896568270073484,68.92208114193896
5.9,-0.12179195019375821,-0.06556155474912352,68.52962075873913
5.91,-0.17848283238113416,-0.019892608492255427,68.04659259480088
5.92,-0.09500395091840474,-0.022694384336235066,67.60884832123185
5.93,-0.20340190147448622,-0.041186104906500674,67.1610409609141
5.94,-0.11182432255641739,-0.05295356345121515,66.78996463705528
5.95,-0.1594820421974532,0.005043196519163348,66.46543008940927
5.96,-0.0781835792803921,-0.028017758439796377,66.19624251888118
5.97,-0.1535637632877821,0.01260799129790837,65.88177105798388
5.98,-0.12677576401242863,-0.04426805833487828,65.50063164737637
5.99,-0.13144808946743214,0.007284617194347059,65.08552931899193
6.0,-0.036444138549027394,0.026336692933408595,64.62514310023829
6.01,-0.16353139092512292,0.013728701635500225,64.24400368963076
6.02,-0.05513344036904144,0.003922486181571493,63.984879205851385
6.03,-0.10715199710141388,0.051832853113623296,63.81758038865402
6.04,-0.052018556732372434,0.013728701635500225,63.87292736577195
6.05,-0.10839795055608148,0.06640208750231741,64.78237883068694
6.06,0.0012459534546676032,0.07228581677467466,68.58622562170065
6.07,-0.05451046364170764,0.1028251734740527,76.86563024420471
6.08,0.028968417821021775,0.09694144420169547,87.73879547618967
6.09,-0.0040493487276697104,0.1462526990557371,97.45470573207258
6.1,0.10154520655540966,0.16026157827563528,103.96300708680306
6.11,0.05451046364170764,0.17006779372956402,108.01339950316026
6.12,0.0772491141893914,0.07228581677467466,110.44740861050533
6.13,-0.0021804185456683056,0.06752279783990928,111.41220705253825
6.14,-0.04329688254969921,-0.022694384336235066,111.05370958711532
6.15,-0.10590604364674627,-0.0030819534283776017,109.53921503143394
6.16,-0.05918278909671115,-0.02745740327100045,106.48758397488656
6.17,-0.13207106619476594,-0.02381509467382692,101.38182533575804
6.18,-0.044542836004366815,-0.002521598259581674,95.3452311723735
6.19,-0.1554326934697835,-0.008405327531938914,89.41052576231971
6.2,-0.026476510911686568,-0.005323374103561312,84.40539799067831
6.21,-0.13923529855910466,-0.011207103375918551,80.90470168796959
6.22,-0.05326451018704004,-0.018771898154663572,78.86315296382433
6.23,-0.08815120691773293,-0.0193322533234595,77.92099646697604
6.24,-0.05731385891470975,-0.052393208282419224,77.5172151111839
6.25,-0.0775606025530583,-0.0019612430907857466,77.09079181020716
6.26,-0.003426372000335909,0.009526037869530768,76.24926618084599
6.27,-0.09282353237273644,-0.005883729272357239,74.93603336013888
6.28,-0.033017766548691485,-0.013448524051102261,73.4668226948267
6.29,-0.10497157855574557,-0.004763018934765384,72.31082560456824
6.3,-0.045165812731700616,-0.02157367399864321,71.5472888975096
6.31,-0.10154520655540966,-0.021013318829847284,71.12086559653287
6.32,-0.07226530037072099,-0.04202663765969457,70.71708424074073
6.33,-0.1146277178294195,-0.04538876867247013,70.07807823219743
6.34,-0.05544492873270834,-0.005323374103561312,69.12460076275681
6.35,-0.09313502073640334,0.007284617194347059,68.10319745776239
6.36,-0.10029925310074206,-0.0579967599703785,67.43022853144218
6.37,-0.10839795055608148,0.009526037869530768,67.36230269588836
6.38,-0.02305013891135066,-0.018771898154663572,68.08055551257779
6.39,-0.05451046364170764,0.0033621310127755653,69.28183649320547
6.4,0.06790446327938437,0.013168346466704298,70.50450153317416
6.41,-0.012771022910342933,0.03446184288094954,71.71584560055055
6.42,0.03488669673069289,0.04370770316608235,73.0844253983756
6.43,-0.10715199710141388,-0.015970122310683937,74.81276054746714
6.44,-0.06198618436971326,0.03109971186817398,76.69833142700735
6.45,-0.17038413492579474,-0.028578113608592304,78.34741976795277
6.46,-0.16290841419778912,-0.042586992828490496,79.42417005006511
6.47,-0.18782748329114118,-0.04538876867247013,79.82795140585725
6.48,-0.17287604183512995,-0.07144528402148076,79.52480091755226
6.49,-0.18377813456347147,-0.04202663765969457,78.76252209633721
6.5,-0.16290841419778912,-0.06388048924273575,77.92099646697604
6.51,-0.1984180876558158,-0.05351391862001108,77.1574597599174
6.52,-0.14795697274177788,-0.026336692933408595,76.46184888841258
6.53,-0.17723687892646656,-0.00896568270073484,75.65428617682831
6.54,-0.2656995742078664,-0.10142428555206288,74.62156189924158
6.55,-0.3008977593022262,-0.04819054451644977,73.4555017222344
6.56,0.1990410643831496,0.03109971186817398,72.26554171419903
6.57,1.008287833189758,0.4317536575572622,71.26678035438921
6.58,0.9061196499070144,0.18743880396223778,70.52714347835877
6.59,-0.29155310839221915,0.08321274256619524,70.07807823219743
6.6,-0.14079274037743916,-0.008405327531938914,69.72964385352321
6.61,-0.16820371638012643,-0.019892608492255427,69.4051093058772
6.62,-0.12179195019375821,-0.03782397389372511,69.056674927203
6.63,-0.13923529855910466,-0.0002801775843979638,68.63025162622627
6.64,-0.1513833447421138,-0.05071214277603144,68.18118638006493
6.65,-0.1604165072884539,-0.03334113254335769,67.74469999233948
6.66,-0.09967627637340826,0.005043196519163348,67.33966075070376
6.67,-0.13518594983143495,0.00896568270073484,66.98116328528084
6.68,-0.12241492692109202,-0.037263618724929184,66.66669182438353
6.69,-0.1560556701971173,-0.03194024462136787,66.31951533155292
6.7,-0.14671101928711028,-0.028017758439796377,65.95975998028642
6.71,-0.13736636837710325,-0.004763018934765384,65.6239044600481
6.72,-0.12584129892142792,0.0008405327531938913,65.2641491087816
6.73,-0.1563671585607842,-0.002521598259581674,64.90565164335867
6.74,-0.0775606025530583,0.0008405327531938913,64.57985920986907
6.75,-0.060117254187711855,0.07396688228106243,64.3672765023025
6.76,-0.10372562510107797,-0.010646748207122624,64.42262347942042
6.77,-0.08908567200873363,0.05603551687959275,65.80252424983776
6.78,-0.009033162546340123,0.07564794778745022,71.02023472904573
6.79,-0.033017766548691485,0.09245860285132805,80.69211898040302
6.8,0.0040493487276697104,0.09834233212368529,91.8784977874417
6.81,0.026165022548019667,0.1375671939394002,100.640930573884
6.82,0.08783971855406603,0.1300023991606552,106.30770629925331
6.83,0.05824832400571045,0.14036896978337984,110.05494822730552
6.84,0.07133083527972028,0.07452723744985837,112.15310181441228
6.85,0.06634702146104987,0.11963582853793053,112.70279792806076
6.86,-0.06478957964271537,-0.015970122310683937,112.04114997433284
6.87,-0.06323213782438086,0.018211542985867645,110.41470357857202
6.88,-0.10185669491907656,-0.04426805833487828,107.2158998783247
6.89,-0.10559455528307937,-0.019892608492255427,102.30259777326532
6.9,-0.10590604364674627,-0.049871610022837555,96.61318010271141
6.91,-0.07288827709805479,-0.002521598259581674,91.00300924030363
6.92,-0.08503632328106392,-0.01709083264827579,86.09977022199296
6.93,-0.1152506945567533,-0.03334113254335769,82.45315916142789
6.94,-0.07226530037072099,-0.03334113254335769,80.16506481193915
6.95,-0.05949427746037805,0.0033621310127755653,79.0430306394576
6.96,-0.07070785855238648,-0.02213402916743914,78.62792831107316
6.97,-0.021804185456683056,0.003922486181571493,78.37006171313737
6.98,-0.08223292800806181,-0.041186104906500674,77.78640268171199
6.99,-0.06260916109704706,-0.010086393038326697,76.71971548634835
7.0,-0.036444138549027394,-0.020452963661051357,75.32849374333871
7.01,-0.0769376258257245,-0.0193322533234595,73.97123491810598
7.02,-0.08690525346306532,-0.03446184288094954,73.53349064453694
7.03,-0.03519818509435979,0.0002801775843979638,73.63412151202407
7.04,-0.12272641528475892,-0.03194024462136787,73.4555017222344
7.05,-0.08098697455339421,-0.0030819534283776017,72.69196501517577
7.06,-0.06821595164305128,-0.06388048924273575,71.31206424475842
7.07,-0.09718436946407305,0.010646748207122624,69.987510451459
7.08,-0.09375799746373714,-0.05407427378880701,69.25919454802086
7.09,-0.11120134582908359,-0.02745740327100045,69.3258624977311
7.1,-0.08628227673573152,-0.04426805833487828,70.24663493523838
7.11,-0.0392475338220295,-0.013448524051102261,71.5359679249173
7.12,0.02273865054768376,0.009526037869530768,72.69196501517577
7.13,0.018689301820014048,0.0014008879219898189,73.73601026535479
7.14,0.060428742551378756,0.0549148065420009,74.82408152005945
7.15,-0.018377813456347147,0.04959143243843959,76.24926618084599
7.16,-0.07413423055272239,-0.03334113254335769,77.90967549438373
7.17,-0.0769376258257245,0.00896568270073484,79.44681199524972
7.18,-0.12521832219409412,-0.06724262025551131,80.6241931448492
7.19,-0.12397236873942652,-0.025776337764612668,81.11854228137976
7.2,-0.10964390401074908,-0.07088492885268484,80.98394849611572
7.21,-0.16695776292545883,-0.07144528402148076,80.27701665201859
7.22,-0.13612041492243565,-0.04763018934765384,79.28957626480107
7.23,-0.12677576401242863,-0.05575533929519479,78.34741976795277
7.24,-0.13798934510443706,-0.06051835822996018,77.4945731659993
7.25,-0.13861232183177086,-0.03838432906252104,76.82160423967908
7.26,-0.17443348365346445,-0.07312634952786855,75.9574366651333
7.27,-0.20059850620148412,-0.041186104906500674,74.86936541042866
7.28,-0.2678799927535347,-0.07144528402148076,73.57877453490615
7.29,0.24140348184184812,0.07788936846263393,72.46806133501688
7.3,1.1783604797518858,0.4555687522310891,71.67056171018135
7.31,0.8494287677196385,0.20312874868852374,71.15482851430977
7.32,-0.22022227311249887,0.09245860285132805,70.81897299407146
7.33,-0.10310264837374417,0.018771898154663572,70.49318056058186
7.34,-0.060740230915045657,-0.011767458544714478,70.12336212256663
7.35,-0.10964390401074908,-0.05071214277603144,69.56234503632587
7.36,-0.12677576401242863,-0.042586992828490496,69.09063784497991
7.37,-0.08690525346306532,-0.02745740327100045,68.74220346630571
7.38,-0.13269404292209974,-0.04426805833487828,68.50697881355453
7.39,-0.06478957964271537,-0.0325005997901638,68.24911221561874
7.4,-0.1183655781934223,-0.05575533929519479,67.90067783694454
7.41,-0.056690882187375946,0.0008405327531938913,67.4742545359678
7.42,-0.08815120691773293,-0.04062574973770475,66.93587939491162
7.43,-0.04173944073136471,0.03810415147812307,66.48681414875028
7.44,-0.1146277178294195,-0.06612190991791946,66.13963765591967
7.45,-0.05513344036904144,-0.005883729272357239,65.87045008539158
7.46,-0.14608804255977648,-0.018211542985867645,65.55597862449429
7.47,-0.0386245570946957,0.0033621310127755653,65.2867910539662
7.48,-0.014951441456011239,0.028017758439796377,65.07420834639963
7.49,-0.010279116001007726,0.028858291192990267,65.36603786211232
7.5,-0.021804185456683056,0.009526037869530768,67.62016929382415
7.51,0.0760031607347238,0.1283213336542674,74.12847064855463
7.52,0.03613265018536049,0.08769558391656267,84.52992868919364
7.53,0.08939716037240053,0.11095032342159365,95.36787311755812
7.54,0.1149392061930864,0.14681305422453303,103.31142221982385
7.55,0.08472483491739702,0.11319174409677736,108.58573756199334
7.56,0.1183655781934223,0.139248259445788,112.07511289210976
7.57,0.16384287928878982,0.08545416324137896,113.8021901553577
7.58,0.06572404473371607,0.0703245736838889,114.116661616255
7.59,0.05170706836870553,0.029418646361786198,113.1631841468144
7.6,-0.01152506945567533,-0.0008405327531938913,111.24490823534089
7.61,0.014639953092344338,0.008405327531938914,107.56433425699892
7.62,-0.10902092728341528,-0.07368670469666447,102.5038595082396
7.63,-0.03582116182169359,-0.05407427378880701,96.8710467006472
7.64,-0.06946190509771888,-0.01709083264827579,91.49735837683417
7.65,-0.01900079018368095,-0.04819054451644977,87.05450557727715
7.66,-0.04391985927703301,-0.03502219804974547,83.7550710095427
7.67,0.011213581092008429,-0.007284617194347059,81.5562865549488
7.68,-0.006852744000671818,-0.013448524051102261,80.46821530024414
7.69,-0.006229767273338016,-0.026336692933408595,80.05311297185972
7.7,-0.029591394548355576,-0.022694384336235066,79.72732053837011
7.71,0.033329254912358386,-0.030819534283776016,79.0656725846422
7.72,-0.056067905460042144,-0.04370770316608235,77.85307063142221
7.73,0.010590604364674627,-0.018211542985867645,76.552416669151
7.74,-0.028345441093687973,-0.019892608492255427,75.46308752860276
7.75,0.016820371638012643,-0.007284617194347059,74.81276054746714
7.76,-0.0794295327350597,-0.046509479010061985,74.46432616879294
7.77,-0.012148046183009131,-0.044828413503674204,74.18381762567255
7.78,-0.06665850982471677,-0.026897048102204522,73.53349064453694
7.79,0.004672325455003512,-0.002521598259581674,72.54605025731942
7.8,-0.06883892837038508,-0.022694384336235066,71.50326289298398
7.81,-0.03177181309402388,-0.019892608492255427,70.9082828889663
7.82,-0.05513344036904144,-0.04594912384126606,70.98627181126882
7.83,0.08129846291706111,-0.014008879219898188,71.72716657314285
7.84,0.0018689301820014048,-0.004763018934765384,72.93851064051925
7.85,0.10746348546508078,0.017651187817071718,74.0831867581854
7.86,0.059805765824044954,0.026336692933408595,75.22786287585157
7.87,0.06572404473371607,0.04146628249089864,76.49581180618948
7.88,-0.04267390582236541,-0.004763018934765384,77.98766441668626
7.89,0.024919069093352064,0.00896568270073484,79.50215897236765
7.9,-0.13674339164976945,-0.06163906856755203,80.79274984789015
7.91,0.012771022910342933,0.0028017758439796378,81.61163353206672
7.92,-0.14951441456011239,-0.09105771492933823,81.79151120769997
7.93,-0.036444138549027394,-0.033901487712153615,81.49968169198728
7.94,-0.14795697274177788,-0.0680831530087052,80.77010790270555
7.95,-0.10029925310074206,-0.0650011995803276,79.95122421852899
7.96,-0.1164966480114209,-0.04763018934765384,79.14366150694472
7.97,-0.07413423055272239,-0.03614290838733733,78.30213587758355
7.98,-0.16976115819846094,-0.07144528402148076,77.40400538526087
7.99,-0.10902092728341528,-0.019892608492255427,76.33857607574083
8.0,-0.21274655238449325,-0.0579967599703785,75.23918384844387
8.01,0.29871734075655787,0.07228581677467466,74.16243356633153
8.02,1.2524947103046082,0.4578101729062728,73.27562404660115
8.03,0.8273130938992885,0.1484941197309208,72.62529706546555
8.04,-0.18782748329114118,0.07088492885268484,72.09698501115808
8.05,0.008098697455339421,0.003922486181571493,71.63785667824803
8.06,-0.07538018400739,-0.06051835822996018,71.17747045949439
8.07,-0.010902092728341528,-0.04931125485404163,70.84035705341248
8.08,-0.029591394548355576,0.018771898154663572,70.48185958798956
8.09,-0.056067905460042144,-0.07788936846263393,69.9988314240513
8.1,-0.06883892837038508,-0.04931125485404163,69.47177725558744
8.11,0.023984604002351362,-0.010086393038326697,68.97868600490047
8.12,-0.036444138549027394,-0.029138468777388234,68.65289357141087
8.13,0.0071642323643387185,-0.015970122310683937,68.24911221561874
8.14,-0.060740230915045657,-0.042586992828490496,67.8000469694574
8.15,0.01588590654701194,-0.0008405327531938913,67.39626561366528
8.16,-0.06603553309738297,-0.020452963661051357,66.96984231268854
8.17,0.020869720365682354,-0.015129589557490044,66.46543008940927
8.18,-0.0794295327350597,-0.025776337764612668,65.95975998028642
8.19,0.05046111491403793,0.013168346466704298,65.6125834874558
8.2,0.021492697093016155,0.05659587204838868,65.41006386663794
8.21,0.0800525094623935,0.04791036693205181,65.69057240975833
8.22,0.02273865054768376,0.008405327531938914,67.68809512937797
8.23,0.12708725237609553,0.09890268729248121,73.82532016024963
8.24,0.06167469600604636,0.08265238739739932,83.98023257554517
8.25,0.21305804074816015,0.16894708339197215,94.84081894909424
8.26,0.13425148474043425,0.11851511820033868,103.07619756707268
8.27,0.229255435658839,0.18687844879344184,108.51781172643952
8.28,0.1532522749241152,0.1260799129790837,112.11913889663538
8.29,0.24950217929718754,0.11683405269395089,113.98206783099097
8.3,0.07133083527972028,0.039224861815714926,114.44245404974461
8.31,0.1183655781934223,0.01260799129790837,113.58960744779114
8.32,0.0037378603640028096,0.0028017758439796378,111.78328337639707
8.33,0.06260916109704706,-0.03614290838733733,108.24862415591143
8.34,-0.03114883636669008,-0.035582553218541396,103.25607524270593
8.35,0.07195381200705409,-0.00896568270073484,97.64590438029813
8.36,-0.06136320764237946,-0.06275977890514389,92.01309157270575
8.37,0.022115673820349957,-0.04062574973770475,87.24444633965912
8.38,-0.007475720728005619,-0.02969882394618416,83.7437500369504
8.39,0.06915041673405198,-0.03838432906252104,81.62295450465902
8.4,-0.026476510911686568,-0.046509479010061985,80.45689432765184
8.41,0.1168081363750878,0.009526037869530768,79.9738661637136
8.42,-0.006852744000671818,-0.02381509467382692,79.6593947028163
8.43,0.0772491141893914,-0.0036423085971735293,79.22165042924726
8.44,-0.001557441818334504,-0.007284617194347059,78.414087717663
8.45,0.06915041673405198,-0.03670326355613326,77.2027436502866
8.46,-0.04173944073136471,-0.02521598259581674,76.05806753262044
8.47,0.060428742551378756,-0.02157367399864321,75.13855298095675
8.48,-0.06665850982471677,-0.0325005997901638,74.60017783990057
8.49,0.017443348365346445,-0.02745740327100045,74.22910151604175
8.5,-0.026476510911686568,-0.01709083264827579,73.65676345720867
8.51,0.10559455528307937,-0.014569234388694117,72.75989085072958
8.52,-0.0028033952730021072,-0.007844972363142987,71.78377143610437
8.53,0.16384287928878982,0.023534917089428956,71.26678035438921
8.54,0.05700237055104285,0.018211542985867645,71.40137413965326
8.55,0.13643190328610255,0.03502219804974547,72.23157879642213
8.56,-0.008098697455339421,0.021853851583041175,73.48820675416772
8.57,0.04578878945903442,-0.03025917911498009,74.79011860228253
8.58,-0.07351125382538859,-0.03446184288094954,76.00272055550252
8.59,-0.004983813818670413,-0.04202663765969457,77.180101705102
8.6,-0.12241492692109202,-0.05071214277603144,78.66189122885007
8.61,-0.008721674182673222,-0.03782397389372511,80.18770675712375
8.62,-0.1594820421974532,-0.0680831530087052,81.48836071939498
8.63,-0.028968417821021775,-0.04062574973770475,82.28586034423053
8.64,-0.1186770665570892,-0.02969882394618416,82.42045412949457
8.65,-0.037690092003695,-0.06388048924273575,81.91478402037171
8.66,-0.11307027601108499,-0.06051835822996018,81.01791141389262
8.67,-0.0769376258257245,-0.044828413503674204,80.08581800379304
8.68,-0.28656929457354874,-0.08181185464420543,79.23297140183956
8.69,0.03550967345802669,-0.03782397389372511,78.51597647099372
8.7,0.7622120258929063,0.33845452195274023,77.71847684615817
8.71,1.5275389354224815,0.39533057158552687,76.76499937671757
8.72,-0.048592184732036525,0.04370770316608235,75.67692812201291
8.73,-0.05513344036904144,0.06163906856755203,74.70080870738771
8.74,-0.0386245570946957,0.0056035516879592755,73.89324599580344
8.75,0.028033952730021072,-0.023254739505030993,73.23034015623195
8.76,-0.12272641528475892,-0.05855711513917443,72.69196501517577
8.77,0.017443348365346445,-0.02521598259581674,72.26554171419903
8.78,-0.05046111491403793,-0.007284617194347059,71.80515549544539
8.79,0.003114883636669008,-0.033901487712153615,71.21143337727129
8.8,-0.09095460219073503,-0.03334113254335769,70.63909531843821
8.81,0.010590604364674627,-0.05631569446399072,70.02147336923592
8.82,-0.08752823019039913,-0.026897048102204522,69.51706114595665
8.83,0.06447809127904847,0.007844972363142987,68.99000697749278
8.84,-0.08815120691773293,0.0002801775843979638,68.56358367651605
8.85,0.040804975640364005,-0.014008879219898188,68.21514929784183
8.86,-0.029902882912022477,0.021853851583041175,67.83400988723432
8.87,0.0389360454583626,-0.007844972363142987,67.5082174537447
8.88,-0.022427162184016858,0.024095272258224883,67.26167182840123
8.89,0.0791180443713928,0.024095272258224883,67.20506696543971
8.9,-0.025542045820685866,0.05071214277603144,67.7774050242728
8.91,0.11275878764741809,0.08153167705980746,71.05419764682264
8.92,0.04236241745869851,0.0913378925137362,78.4367296628476
8.93,0.17599092547179895,0.1375671939394002,88.69227294563028
8.94,0.04547730109536752,0.11319174409677736,98.17295854876201
8.95,0.25822385347986077,0.20172786076653393,104.79321174357193
8.96,0.10154520655540966,0.11319174409677736,109.22474357053665
8.97,0.21181208729349255,0.09526037869530768,112.02982900174054
8.98,0.07101934691605338,0.06752279783990928,113.33174084985535
8.99,0.14639953092344338,0.015409767141888008,113.23110998236822
9.0,-0.026476510911686568,0.0033621310127755653,112.15310181441228
9.01,0.11088985746541669,0.01709083264827579,109.83104454714663
9.02,-0.08160995128072801,-0.04314734799728642,105.79197310338174
9.03,0.02741097600268727,-0.06556155474912352,100.46231078409434
9.04,-0.05855981236937735,-0.02745740327100045,94.7401880816071
9.05,0.05918278909671115,0.016530477479479864,89.3878838171351
9.06,-0.08752823019039913,-0.0579967599703785,85.09094577543442
9.07,0.06790446327938437,-0.011767458544714478,82.25189742645362
9.08,-0.05139558000503863,-0.02521598259581674,80.69211898040302
9.09,0.06728148655205057,-0.02521598259581674,79.95122421852899
9.1,-0.016820371638012643,0.011487280960316515,79.60404772569836
9.11,0.04142795236769781,-0.04426805833487828,79.23297140183956
9.12,-0.02772246436635417,0.0002801775843979638,78.50465549840142
9.13,0.07195381200705409,-0.02521598259581674,77.42664733044548
9.14,-0.036444138549027394,-0.004763018934765384,76.18134034529218
9.15,0.14110422874110606,0.026336692933408595,75.17125801289006
9.16,-0.01152506945567533,-0.005883729272357239,74.40897919167502
9.17,0.17007264656212784,0.018771898154663572,73.79135724247271
9.18,0.06572404473371607,0.01709083264827579,73.20769821104733
9.19,0.16789222801645953,0.01484941197309208,72.4793823076092
9.2,0.012771022910342933,0.07620830295624614,71.77245046351207
9.21,0.0800525094623935,-0.00896568270073484,71.26678035438921
9.22,-0.06354362618804776,-0.03502219804974547,71.74980851832746
9.23,0.03364074327602529,-0.005883729272357239,72.97247355829616
9.24,-0.1523178098331145,-0.07312634952786855,74.26306443381867
9.25,-0.001557441818334504,-0.04931125485404163,75.38509860630022
9.26,-0.13923529855910466,-0.04062574973770475,76.37253899351774
9.27,-0.029591394548355576,-0.052393208282419224,77.56124111570952
9.28,-0.16571180947079123,-0.07788936846263393,79.22165042924726
9.29,-0.03114883636669008,-0.05295356345121515,81.05061644582594
9.3,-0.12926767092176383,-0.02969882394618416,82.5210849969817
9.31,-0.03177181309402388,-0.07144528402148076,83.31732673597367
9.32,-0.22209120329450027,-0.04594912384126606,83.29468479078906
9.33,-0.09095460219073503,-0.016530477479479864,82.67832072743036
9.34,0.17536794874446515,0.038664506646919,81.80283218029227
9.35,1.1824098284795554,0.35302375634143435,81.07325839101054
9.36,0.7868196066225914,0.21237460897365654,80.45689432765184
9.37,-0.18658152983647358,0.038664506646919,79.82795140585725
9.38,-0.14328464728677437,0.013168346466704298,78.93107879937816
9.39,0.008098697455339421,-0.03194024462136787,77.8203655994889
9.4,-0.12397236873942652,-0.005323374103561312,76.63040559145352
9.41,-0.021804185456683056,-0.03446184288094954,75.57629725452578
9.42,-0.12116897346642441,-0.029138468777388234,74.63288287183389
9.43,-0.010279116001007726,-0.030819534283776016,73.81399918765733
9.44,-0.14733399601444408,-0.023254739505030993,73.0957463709679
9.45,0.0395590221856964,0.00448284135036742,72.41145647205538
9.46,-0.09438097419107094,-0.013448524051102261,71.71584560055055
9.47,0.0024919069093352064,-0.023254739505030993,71.07683959200725
9.48,-0.09438097419107094,-0.010086393038326697,70.53846445095107
9.49,0.023984604002351362,-0.00896568270073484,70.07807823219743
9.5,-0.09843032291874065,-0.02969882394618416,69.6742968764053
9.51,0.022115673820349957,0.0019612430907857466,69.23655260283626
9.52,-0.10995539237441598,0.005043196519163348,68.82145027445182
9.53,0.033329254912358386,0.0002801775843979638,68.55226270392374
9.54,-0.05139558000503863,0.026897048102204522,68.51829978614683
9.55,0.07319976546172169,0.05407427378880701,69.25919454802086
9.56,-0.020869720365682354,0.09245860285132805,72.62529706546555
9.57,0.13113660110376524,0.08825593908535859,79.80530946067265
9.58,0.01993525527468165,0.12888168882306333,89.46587273943763
9.59,0.153875251651449,0.11683405269395089,98.57673990455415
9.6,0.033329254912358386,0.13644648360180836,105.17435115417945
9.61,0.2333047843865087,0.14176985770536968,109.47128919588013
9.62,0.05170706836870553,0.05939764789236832,112.2436695951507
9.63,0.10216818328274346,0.018211542985867645,113.52168161223732
9.64,-0.029591394548355576,0.0014008879219898189,113.23110998236822
9.65,0.029591394548355576,-0.015129589557490044,111.87259327129189
9.66,-0.12584129892142792,-0.037263618724929184,109.1354336756418
9.67,0.07101934691605338,-0.004202663765969457,104.47874028267462
9.68,-0.156990135288118,-0.04370770316608235,98.7566175801874
9.69,0.009344650910007024,-0.04062574973770475,92.72002341680286
9.7,-0.06665850982471677,-0.014008879219898188,87.40168207010777
9.71,0.005918278909671115,-0.05295356345121515,83.54248830197614
9.72,-0.11182432255641739,-0.03838432906252104,81.19653120368228
9.73,0.03613265018536049,-0.025776337764612668,80.05311297185972
9.74,-0.04983813818670413,-0.0002801775843979638,79.63801064347528
9.75,0.037378603640028096,-0.06668226508671538,79.44681199524972
9.76,-0.08160995128072801,-0.0008405327531938913,78.97510480390378
9.77,0.03364074327602529,-0.05631569446399072,78.08955317001698
9.78,-0.08223292800806181,-0.010086393038326697,76.81028326708677
9.79,0.10559455528307937,0.01260799129790837,75.6090022864591
9.8,-0.045165812731700616,-0.016530477479479864,74.73477162516461
9.81,0.1887619483821419,0.028017758439796377,74.0492238404085
9.82,0.08472483491739702,0.042586992828490496,73.3988968592729
9.83,0.09406948582740404,-0.026897048102204522,72.69196501517577
9.84,-0.012148046183009131,0.016530477479479864,71.90704424877612
9.85,0.07257678873438789,0.010646748207122624,71.33470618994303
9.86,-0.06603553309738297,-0.012327813713510407,71.25545938179691
9.87,-0.032394789821357683,-0.04594912384126606,71.8391184132223
9.88,-0.16571180947079123,-0.05463462895760294,73.14103026133711
9.89,-0.017754836729013346,-0.07256599435907261,74.63288287183389
9.9,-0.1158736712840871,0.007284617194347059,76.12599336817426
9.91,-0.06728148655205057,-0.09862250970808326,77.65180889644795
9.92,-0.1563671585607842,-0.06332013407393981,79.36756518710361
9.93,-0.017443348365346445,-0.061078713398756104,81.04055335907722
9.94,-0.13331701964943354,-0.029138468777388234,82.46448013402019
9.95,-0.060740230915045657,-0.08993700459174638,83.48588343901461
9.96,-0.2610272487528629,-0.06163906856755203,83.7777129547273
9.97,-0.05451046364170764,-0.04062574973770475,83.50852538419922
9.98,0.28376589930054663,0.07788936846263393,82.73366770454828
9.99,1.2995294532183101,0.44436164885517054,81.79151120769997
