time_s,ECG1,ECG2,NIBP
0.0,-0.12199523485239666,-0.04792400988066722,62.09993071779069
0.01,-0.1132726361340525,-0.056036988332375685,61.717699830651114
0.02,-0.1132726361340525,-0.03171600204462134,61.335468943511536
0.03,-0.10923439598667095,-0.0375135508054661,60.96468209490907
0.04,-0.10055217966980062,-0.00915402435922857,60.63967140045506
0.05,-0.0593621301665088,0.00996173239092521,60.36959209097919
0.06,-0.04599555527867587,0.05799343667581865,60.17962105126311
0.07,-0.048337734564157166,0.00705398347681731,60.03313735798806
0.08,-0.07789765244299011,0.0169080214635163,59.797390164123534
0.09,-0.08544916151859362,0.002423124095089916,59.460935431132405
0.1,-0.0825416286124789,-0.007412964824238039,59.11303665960417
0.11,-0.11852234832564852,-0.04040335065220297,58.77658192661304
0.12,-0.13705787060212984,-0.05314718848563882,58.49505857860006
0.13,-0.1260334749997782,-0.06240890724909361,58.316531577421095
0.14,-0.13358498407538172,-0.05429592879738515,58.2158240382945
0.15,-0.12490276775851138,-0.06298327740496677,58.06934034501945
0.16,-0.13184854081200764,-0.05835241802323938,57.82214911261781
0.17,-0.27686174450447915,-0.039828980496329804,57.55206980314194
0.18,-0.33598158026214503,0.06553204497165395,57.32776664781452
0.19,0.17958053935405757,0.39259995060667946,57.17212772370978
0.2,1.3934755276569517,0.5517902291204014,57.025644030434734
0.21,1.4961275922033908,-0.06414996678408415,56.85627226008546
0.22,-0.2177015263453394,-0.3784740345856738,56.689189297443605
0.23,-0.21188646053310997,-0.17412390256642424,56.531261565631446
0.24,-0.10749795272329689,-0.003930845754256974,56.46488614211619
0.25,-0.02051425994869828,0.017482391619389467,56.40766594943062
0.26,-0.0019383552707431446,0.019223451154379997,56.26118225615558
0.27,0.0015345312560049893,0.014592591772652604,56.09409929351372
0.28,0.003876710541486289,0.038895628993035905,55.94761560023868
0.29,0.020110435933960124,0.04063668852802644,55.83546402257497
0.3,0.027056208987456393,0.05047277744735439,55.801131906963626
0.31,0.04676282090667836,0.06262429605754605,55.78968786842651
0.32,0.06243119267851878,0.07942462311683612,55.769088599059714
0.33,0.09376793622219962,0.08983508219203724,55.65464821368858
0.34,0.1036212421818106,0.1095252090980642,55.52189736665807
0.35,0.13261580644001014,0.11647149817065529,55.38685771192013
0.36,0.16161037069820966,0.15235168384535708,55.2518180571822
0.37,0.2080097499916237,0.16624426199053927,55.09389032537003
0.38,0.2509362427582896,0.20734762627021264,54.903919285653956
0.39,0.3054524847479405,0.2496176799290034,54.679616130326544
0.4,0.3547593969474693,0.29592627374627734,54.48735628290304
0.41,0.4173925016333571,0.3376040081818239,54.36376066670222
0.42,0.47768342703376365,0.4024360395260074,54.32027332026119
0.43,0.5275960752553996,0.4325366255072355,54.38664874377645
0.44,0.5641017661877289,0.48058627885949995,54.881031208579735
0.45,0.5409222677417588,0.44700357380829087,56.554149642705674
0.46,0.4585421687351751,0.3983795503001532,60.56185193840269
0.47,0.31474043708691807,0.281441376377851,67.63426775433861
0.48,0.1801862753761648,0.17667267013311141,76.27680565756644
0.49,0.07171914501749635,0.08694528234530038,83.84360393830565
0.5,-0.014699194136468845,0.03426476961130851,89.05064147269212
0.51,-0.04195731513129432,-0.002782105442510644,91.77890025993989
0.52,-0.07789765244299011,-0.018990113278556525,92.11535499293102
0.53,-0.08023983172847142,-0.034623750958729244,90.8702436000931
0.54,-0.09703891074157867,-0.03114163188874818,88.5127716614478
0.55,-0.09356602421483054,-0.04329315049893983,86.2674513004662
0.56,-0.09647355712094526,-0.030567261732875012,84.97656375347984
0.57,-0.08601451513922703,-0.04329315049893983,84.20294674837099
0.58,-0.09417176023693777,-0.03114163188874818,83.1020302411007
0.59,-0.08601451513922703,-0.04271878034306666,80.82237776450778
0.6,-0.0825416286124789,-0.03114163188874818,77.72562093636496
0.61,-0.07676694520172328,-0.029992891577001846,74.62657530051473
0.62,-0.0825416286124789,-0.02130554296942022,72.2462152847952
0.63,-0.08427807187585297,-0.034623750958729244,70.63031704335482
0.64,-0.07850338846509736,-0.018415743122683362,69.48591318964351
0.65,-0.07442476591624199,-0.030567261732875012,68.47426018296271
0.66,-0.08892204804534175,-0.02651077250702078,67.36418844486273
0.67,-0.07676694520172328,-0.034623750958729244,66.1167882443174
0.68,-0.10055217966980062,-0.033457061579611876,64.87167685147949
0.69,-0.08835669442470834,-0.039828980496329804,63.72727299776818
0.7,-0.09126422733082305,-0.03288269142373871,62.672132644646354
0.71,-0.10285397655380811,-0.04792400988066722,61.69481175357689
0.72,-0.10632686308055624,-0.03808792096133927,60.78615509373011
0.73,-0.09994644364769338,-0.05661135848824885,59.95531789593569
0.74,-0.11153619287067844,-0.045034210033930364,59.2480763143421
0.75,-0.10111753329043403,-0.04734963972479406,58.81091404222438
0.76,-0.10866904236603754,-0.04560858018980353,58.68731842602356
0.77,-0.08892204804534175,-0.05255486926239462,58.79947000368727
0.78,-0.10632686308055624,-0.04909069925978459,59.04666123608891
0.79,-0.09182958095145648,-0.04734963972479406,59.43804735405818
0.8,-0.09126422733082305,-0.03693918064959294,60.03313735798806
0.81,-0.09126422733082305,-0.04620089941304773,60.87541859431959
0.82,-0.10632686308055624,-0.0421444101871935,61.896226831830084
0.83,-0.0953024674782046,-0.05198049910652145,62.94221195412222
0.84,-0.11852234832564852,-0.05314718848563882,63.80509245982055
0.85,-0.09821000038431932,-0.050831758794775125,64.457402656436
0.86,-0.09647355712094526,-0.045034210033930364,65.01816054475454
0.87,-0.08892204804534175,-0.04966506941565776,65.44387877833515
0.88,-0.10055217966980062,-0.04271878034306666,65.75973424195948
0.89,-0.10055217966980062,-0.050239439571530924,65.94970528167555
0.9,-0.0953024674782046,-0.04097772080807613,65.97259335874978
0.91,-0.08544916151859362,-0.04620089941304773,65.8032215884005
0.92,-0.10111753329043403,-0.04040335065220297,65.4782108939465
0.93,-0.09647355712094526,-0.05255486926239462,65.07309192973268
0.94,-0.09877535400495274,-0.03519812111460241,64.69314985030053
0.95,-0.08141092137121207,-0.04792400988066722,64.33380704023517
0.96,-0.10168288691106746,-0.04271878034306666,63.89435596041003
0.97,-0.08371271825521956,-0.04560858018980353,63.40226230331417
0.98,-0.09473711385757119,-0.03925461034045664,62.8392156072882
0.99,-0.0825416286124789,-0.03230832126786554,62.34712195019234
1.0,-0.08371271825521956,-0.02593640235114762,61.90767087036719
1.01,-0.046601291300783096,-0.012043824205965434,61.48195263678659
1.02,-0.04486484803740903,0.033690399455435345,61.06538963403567
1.03,-0.021644967189965114,0.033116029299562186,60.69689159314063
1.04,-0.039049782225179595,0.004738553785953613,60.358148052442075
1.05,-0.06747899286274572,0.008220672855934677,60.00109405008415
1.06,-0.056454597260394083,-0.0004666757516469468,59.65090647084848
1.07,-0.07095187938949385,-0.020138853590302857,59.30300769932025
1.08,-0.10923439598667095,-0.04909069925978459,59.02377315901469
1.09,-0.10402506619654875,-0.05777804786736621,58.76513788807593
1.1,-0.1104054856294116,-0.05198049910652145,58.46301527069614
1.11,-0.09821000038431932,-0.05718572864412201,58.170047884146044
1.12,-0.10111753329043403,-0.05429592879738515,57.95718876735574
1.13,-0.1411364931509852,-0.05198049910652145,57.77637295846935
1.14,-0.38702493572504787,0.023854310536107395,57.57495788021616
1.15,-0.14517473329836675,0.2200914641036485,57.32776664781452
1.16,0.8825170018087641,0.5442516208245661,57.04853210750896
1.17,1.8603768534972067,0.16278009198792923,56.755564720958866
1.18,0.7839435598111805,-0.15617483519538783,56.46488614211619
1.19,-0.32265538777578595,-0.2951185657145807,56.2840703332298
1.2,-0.21362290379648405,-0.10986624137811389,56.217694909714545
1.21,-0.09417176023693777,0.015741332084398936,56.12614260141764
1.22,-0.014699194136468845,0.011684842858544705,55.913283484627335
1.23,0.01312428047899004,0.02211325100111686,55.634048944321776
1.24,0.010822483594982557,0.02731848053871742,55.36396963484591
1.25,0.03577880770580054,0.03715456945804538,55.2518180571822
1.26,0.04853964657152624,0.05278820713821809,55.20604190303374
1.27,0.0549200660043891,0.05395489651733546,55.1511105180556
1.28,0.0653387255846335,0.07188601482100083,55.11677840244426
1.29,0.09724082274894774,0.07825793373771876,55.082446286832926
1.3,0.11521099140479565,0.10604309002808313,55.02751490185478
1.31,0.14307484842172835,0.11589712801478212,54.89247524711684
1.32,0.16625434686769847,0.1459977139960102,54.702504207400764
1.33,0.20744439637099027,0.16161340260881188,54.49880032144015
1.34,0.24746335623154145,0.20040133719762157,54.3317173587983
1.35,0.2944280891455889,0.23109424240209384,54.25160908903851
1.36,0.34720788787186574,0.29361084405541366,54.17378962698614
1.37,0.4127485254638683,0.3300653998859886,54.06163804932243
1.38,0.46783012107415267,0.38622803168996156,53.926598394584495
1.39,0.5269903392332924,0.43079556597224494,53.791558739846565
1.4,0.5722186288839658,0.4643782710234541,53.69085120071997
1.41,0.5849794677496915,0.47073224087280097,53.88311104814347
1.42,0.511321967461452,0.41806967720618016,54.82609982360159
1.43,0.3739006552460578,0.31559845158493327,57.30487857074029
1.44,0.22715100829021226,0.20851431564933,62.30134579604388
1.45,0.1088305719719328,0.11184063878892789,69.82236792263464
1.46,0.012558926858356623,0.04932403713560807,77.79199635988022
1.47,-0.04312840477403496,0.008795043011807844,84.01068690094749
1.48,-0.08023983172847142,-0.020138853590302857,87.86275027253977
1.49,-0.08718560478196768,-0.029992891577001846,89.35505289777933
1.5,-0.10632686308055624,-0.03808792096133927,88.71418673970099
1.51,-0.10228862293317469,-0.03577249127047557,86.6611262261429
1.52,-0.10979974960730438,-0.03403143173548504,84.15717059422255
1.53,-0.10459041981718217,-0.04966506941565776,82.55271639131928
1.54,-0.09647355712094526,-0.03230832126786554,81.83403077118858
1.55,-0.09590820350031183,-0.03808792096133927,81.30531619077395
1.56,-0.09703891074157867,-0.034623750958729244,79.95949725880945
1.57,-0.10168288691106746,-0.04271878034306666,77.16486304804643
1.58,-0.09647355712094526,-0.03403143173548504,73.87584637248011
1.59,-0.09065849130871582,-0.036346861426348735,71.05603527693543
1.6,-0.10749795272329689,-0.036346861426348735,69.20438984163053
1.61,-0.09938109002705997,-0.03577249127047557,68.0485419493821
1.62,-0.10576150945992283,-0.03230832126786554,67.12844125099821
1.63,-0.10576150945992283,-0.04097772080807613,66.15112035992874
1.64,-0.11504946179890038,-0.04388546972218403,64.94949631353187
1.65,-0.10341933017444152,-0.04097772080807613,63.53501315034468
1.66,-0.10979974960730438,-0.04040335065220297,62.15486210276884
1.67,-0.11735125868290787,-0.05429592879738515,60.93263878700515
1.68,-0.13011209754863357,-0.04909069925978459,59.877498433883325
1.69,-0.12720456464251886,-0.05487029895325832,58.88873350427675
1.7,-0.14053075712887797,-0.05429592879738515,58.08078438355656
1.71,-0.13241389443264107,-0.05835241802323938,57.417030148404
1.72,-0.13940004988761115,-0.05835241802323938,56.947824568382366
1.73,-0.13766360662423707,-0.05661135848824885,56.71207737451783
1.74,-0.14981870946785555,-0.06472433693995731,56.73267664388464
1.75,-0.13705787060212984,-0.05314718848563882,57.01419999189762
1.76,-0.13996540350824455,-0.056036988332375685,57.451362264015344
1.77,-0.13184854081200764,-0.04909069925978459,57.99152088296708
1.78,-0.1486880022265887,-0.05777804786736621,58.68731842602356
1.79,-0.1463458229411074,-0.058926788179112545,59.63030720148168
1.8,-0.15098979911059618,-0.05661135848824885,60.774711055192995
1.81,-0.1463458229411074,-0.06240890724909361,61.82985140831482
1.82,-0.14460937967773335,-0.058926788179112545,62.672132644646354
1.83,-0.135927163360863,-0.05546261817650252,63.26722264857624
1.84,-0.14404402605709993,-0.058926788179112545,63.58078930449313
1.85,-0.135927163360863,-0.058926788179112545,63.704384920693954
1.86,-0.14287293641435928,-0.05950115833498571,63.770760344209215
1.87,-0.13940004988761115,-0.061242217869976245,63.850868613969006
1.88,-0.14404402605709993,-0.053721558641511985,63.905799998947145
1.89,-0.13996540350824455,-0.06066784771410308,63.83942457543189
1.9,-0.1434382900349927,-0.05661135848824885,63.55790122741891
1.91,-0.13419072009748895,-0.05546261817650252,63.120738955301185
1.92,-0.1278103006646261,-0.030567261732875012,62.57142510551976
1.93,-0.08371271825521956,-0.010877134826848066,62.09993071779069
1.94,-0.08952778406744899,0.029059540073707955,61.752031946262456
1.95,-0.07789765244299011,0.0007000136274704201,61.447620521175246
1.96,-0.09300067059419712,-0.0033564755983838093,61.088277711109896
1.97,-0.11153619287067844,-0.012043824205965434,60.662559477529285
1.98,-0.11097083925004503,-0.02073117281354706,60.22539720541156
1.99,-0.13419072009748895,-0.04271878034306666,59.797390164123534
2.0,-0.1741692975565663,-0.0716706260125484,59.42660331552107
2.01,-0.1637506379763219,-0.07456042585928527,59.124480698141284
2.02,-0.16144884109231442,-0.06298327740496677,58.81091404222438
2.03,-0.16144884109231442,-0.07513479601515843,58.51794665567429
2.04,-0.16839461414581067,-0.0739860557034121,58.2158240382945
2.05,-0.27686174450447915,-0.06646539647494784,57.922856651744404
2.06,-0.42009812253210277,0.019223451154379997,57.68710945787987
2.07,0.03287127479968582,0.31444971127318694,57.49713841816379
2.08,1.2310978913307395,0.5552543991230114,57.227059108687925
2.09,1.6231302448385405,0.022687621156990027,56.913492452771024
2.1,-0.10923439598667095,-0.35300430798617316,56.643413143295156
2.11,-0.2588511934471574,-0.18338562132987904,56.384777872356395
2.12,-0.1741692975565663,-0.04677526956892089,56.11698737058795
2.13,-0.06340037031389036,-0.002782105442510644,55.881240176723416
2.14,-0.039049782225179595,-0.005671905289247507,55.688980329299916
2.15,-0.03787869258243895,-0.001041045907520112,55.553940674561986
2.16,-0.03787869258243895,0.008220672855934677,55.39830175045724
2.17,-0.023987146475446412,0.008795043011807844,55.13966647951849
2.18,-0.0054112417974912785,0.02848516991783479,54.83525505443128
2.19,0.007349597068234423,0.03426476961130851,54.622395937640974
2.2,0.02184687919733419,0.04063668852802644,54.53313243705149
2.21,0.04155349111655616,0.05336257729409126,54.455312974999124
2.22,0.0653387255846335,0.07247833404424504,54.36376066670222
2.23,0.09724082274894774,0.09389157141789148,54.25160908903851
2.24,0.13205045281937672,0.11762023848240162,54.118858242007995
2.25,0.16855614375170594,0.13325387616257434,53.94948647165872
2.26,0.2028004202015015,0.17204181075138403,53.725183316331304
2.27,0.2683410577935041,0.21371954518693057,53.48943612246678
2.28,0.3199497668770403,0.2525074797757403,53.2994650827507
2.29,0.3918708239019057,0.308077792356469,53.230800851528016
2.3,0.4522021317037861,0.3624814155580804,53.19646873591668
2.31,0.5142295003675668,0.4116977582894622,53.17586946654988
2.32,0.5473026871746216,0.4412239741148171,53.342952429191726
2.33,0.5310689617821478,0.4302211958163718,54.19667770406036
2.34,0.42143074178073864,0.3520709564828792,56.67774525890649
2.35,0.2828383399226038,0.2553972796224771,61.706255792114
2.36,0.13843087225223957,0.15003625415449337,69.44013703549506
2.37,0.032265538777578595,0.06090118558992655,77.75766424426888
2.38,-0.046601291300783096,0.004738553785953613,84.37002971101285
2.39,-0.09590820350031183,-0.03925461034045664,88.48988358437357
2.4,-0.12256058847303007,-0.05140612895064829,90.21793340347766
2.41,-0.1260334749997782,-0.06009347755822991,89.79221516989705
2.42,-0.13419072009748895,-0.06587307725170363,87.99550111957029
2.43,-0.12837565428525952,-0.06066784771410308,85.6288739500953
2.44,-0.1434382900349927,-0.0739860557034121,83.88709128474667
2.45,-0.13241389443264107,-0.06761413678669417,82.96699058636278
2.46,-0.13475607371812237,-0.07050393663343103,82.24830496623207
2.47,-0.13532142733875577,-0.07050393663343103,81.00319357339417
2.48,-0.13184854081200764,-0.06240890724909361,78.55645813415937
2.49,-0.12373167811577072,-0.06414996678408415,75.48030057538337
2.5,-0.12025879158902258,-0.05661135848824885,72.66277828754612
2.51,-0.1260334749997782,-0.06066784771410308,70.63031704335482
2.52,-0.13475607371812237,-0.06355764756083994,69.23872195724186
2.53,-0.12490276775851138,-0.05718572864412201,68.24995702763529
2.54,-0.1289410079058929,-0.05777804786736621,67.31841229071428
2.55,-0.1260334749997782,-0.05950115833498571,66.18545247554009
2.56,-0.1382289602448705,-0.06818850694256734,64.81674546650135
2.57,-0.13475607371812237,-0.07224499616842156,63.50296984244076
2.58,-0.135927163360863,-0.06529870709583047,62.37916525809626
2.59,-0.14404402605709993,-0.06703976663082101,61.45906455971236
2.6,-0.1463458229411074,-0.07224499616842156,60.58474001547692
2.61,-0.1411364931509852,-0.07281936632429473,59.6623505093856
2.62,-0.16201419471294784,-0.08267340431099372,58.38290700093635
2.63,-0.15098979911059618,-0.07919128524101265,57.31632260927741
2.64,-0.15272624237397026,-0.0809323447760032,56.82422895218154
2.65,-0.14808226620448148,-0.08150671493187635,56.84482822154835
2.66,-0.14925335584722213,-0.07919128524101265,57.35065472488875
2.67,-0.14287293641435928,-0.08035797462013003,58.012120152333885
2.68,-0.15272624237397026,-0.08382214462274006,58.474459309233254
2.69,-0.14460937967773335,-0.07745022570602213,58.79947000368727
2.7,-0.1463458229411074,-0.08150671493187635,59.259520352879214
2.71,-0.14460937967773335,-0.07572711523840263,60.03313735798806
2.72,-0.1463458229411074,-0.07976565539688582,61.14549790379546
2.73,-0.1463458229411074,-0.08035797462013003,62.289901757506776
2.74,-0.15216088875333683,-0.08498883400185742,63.22144649442778
2.75,-0.14404402605709993,-0.07687585555014896,63.75016107484241
2.76,-0.15216088875333683,-0.08324777446686689,63.94013211455849
2.77,-0.14230758279372585,-0.07572711523840263,64.00650753807375
2.78,-0.14751691258384805,-0.0809323447760032,64.00650753807375
2.79,-0.14460937967773335,-0.07919128524101265,63.963020191632715
2.8,-0.15446268563734433,-0.08208108508774951,63.91724403748426
2.81,-0.1330196304547483,-0.08035797462013003,63.82798053689478
2.82,-0.14517473329836675,-0.07745022570602213,63.569345265956024
2.83,-0.11852234832564852,-0.04792400988066722,63.074962801152736
2.84,-0.0953024674782046,-0.04097772080807613,62.57142510551976
2.85,-0.07325367627350134,0.012851532237662073,62.1205299871575
2.86,-0.0570199508810275,0.0059052431650709804,61.72914386918823
2.87,-0.07385941229560856,-0.029400572353757645,61.31258086643731
2.88,-0.10979974960730438,-0.02073117281354706,60.85253051724536
2.89,-0.10632686308055624,-0.036346861426348735,60.40392420659053
2.9,-0.1231663244951373,-0.056036988332375685,59.96676193447281
2.91,-0.14751691258384805,-0.08961969338358482,59.59597508587034
2.92,-0.15272624237397026,-0.08613757431360375,59.27096439141633
2.93,-0.15506842165945156,-0.0959736632329317,58.96655296632912
2.94,-0.15619912890071838,-0.09365823354206801,58.68731842602356
2.95,-0.14981870946785555,-0.1006045226146591,58.41723911654769
2.96,-0.202033154573499,-0.08845300400446744,58.124271729997595
2.97,-0.4212692121748434,-0.003930845754256974,57.83359315115492
2.98,-0.17594612322141417,0.21429391534280373,57.531470533775135
2.99,0.8320793823679686,0.5749445260290384,57.28427930137349
3.0,1.7258226917864534,0.15466711353622078,57.05997614604607
3.01,0.6528622846271753,-0.21754269653696134,56.85627226008546
3.02,-0.2965683564237011,-0.2997494250963081,56.609081027683814
3.03,-0.1840629859176511,-0.1029199523055228,56.29551437176691
3.04,-0.08314736463458614,-0.009728394515101737,55.93617156170156
3.05,-0.029761829886202032,-0.01782342389943916,55.634048944321776
3.06,-0.028631122644935197,-0.010302764670974901,55.441789096898276
3.07,-0.025117853716713247,-0.0033564755983838093,55.31819348069745
3.08,-0.021644967189965114,0.0030154433183341173,55.20604190303374
3.09,-0.004845888176857861,0.015741332084398936,55.03895894039189
3.1,0.003876710541486289,0.026744110382844258,54.84669909296839
3.11,0.029963741893571108,0.043526488374763306,54.66817209178943
3.12,0.04098813749592274,0.04989840729148123,54.510244359977264
3.13,0.07402094190150384,0.06899621497426398,54.343161397335415
3.14,0.09897726601232182,0.09215051188290095,54.19667770406036
3.15,0.1297082735338954,0.11067394940981053,54.06163804932243
3.16,0.1598739274348356,0.12804864662497378,53.926598394584495
3.17,0.20453686346487557,0.16624426199053927,53.83733489399501
3.18,0.25497448290567115,0.20097570735349474,53.725183316331304
3.19,0.3182133236136662,0.25019205008487655,53.54436750744492
3.2,0.3634416132643396,0.2918697845204231,53.3200643521175
3.21,0.4359280239098384,0.35670181586460664,53.11864927386431
3.22,0.4887078226361153,0.407641269063608,53.006497696200604
3.23,0.5525120169647438,0.4435394038056808,53.141537350938535
3.24,0.5414876213623921,0.4417983442706903,53.96093051019584
3.25,0.4782891630558709,0.4006949799910169,56.26118225615558
3.26,0.3303684264572847,0.2988160735930142,60.90975070993093
3.27,0.1946835575052646,0.18650875905243938,68.11491737289735
3.28,0.06186583905788536,0.08405548249856352,76.27680565756644
3.29,-0.02051425994869828,0.021538880845243698,83.05625408695226
3.3,-0.08544916151859362,-0.025362032195274452,87.56978288598968
3.31,-0.10402506619654875,-0.03808792096133927,89.7258397463818
3.32,-0.12490276775851138,-0.05950115833498571,89.71439570784467
3.33,-0.12429703173640413,-0.06009347755822991,88.24269235197193
3.34,-0.130677451169267,-0.061242217869976245,85.89666445186374
3.35,-0.12429703173640413,-0.06009347755822991,84.03357497802172
3.36,-0.13241389443264107,-0.05950115833498571,83.06769812548937
3.37,-0.12142988123176324,-0.05255486926239462,82.45200885219269
3.38,-0.12837565428525952,-0.06646539647494784,81.31676022931106
3.39,-0.12142988123176324,-0.05429592879738515,78.91580094422473
3.4,-0.12720456464251886,-0.05777804786736621,75.83964338544872
3.41,-0.11504946179890038,-0.04909069925978459,72.92141355848487
3.42,-0.12663921102188544,-0.05429592879738515,70.76535669809276
3.43,-0.11618016904016722,-0.04329315049893983,69.3737616119798
3.44,-0.13241389443264107,-0.05314718848563882,68.39644072091033
3.45,-0.12082414520965601,-0.04909069925978459,67.46489598398934
3.46,-0.130677451169267,-0.05950115833498571,66.34338020735224
3.47,-0.13184854081200764,-0.05950115833498571,64.9838284291432
3.48,-0.145780469320474,-0.06761413678669417,63.60367738156736
3.49,-0.13996540350824455,-0.05718572864412201,62.37916525809626
3.5,-0.14925335584722213,-0.07456042585928527,61.34691298204865
3.51,-0.1486880022265887,-0.06414996678408415,60.461144399276094
3.52,-0.1538973320167109,-0.07341168554753894,59.65090647084848
3.53,-0.13940004988761115,-0.06240890724909361,58.86584542720252
3.54,-0.15737021854345903,-0.07687585555014896,58.204379999757386
3.55,-0.14691117656174082,-0.07050393663343103,57.732885612028326
3.56,-0.1486880022265887,-0.07224499616842156,57.55206980314194
3.57,-0.13996540350824455,-0.058926788179112545,57.63217807290173
3.58,-0.16027775144957376,-0.0763014853942758,57.922856651744404
3.59,-0.13879431386550392,-0.06878082616581153,58.40579507801058
3.6,-0.15793557216409246,-0.0739860557034121,58.989441043403346
3.61,-0.1411364931509852,-0.06472433693995731,59.70812666353405
3.62,-0.14808226620448148,-0.06587307725170363,60.51607578425424
3.63,-0.1434382900349927,-0.06298327740496677,61.392689136197106
3.64,-0.14981870946785555,-0.06878082616581153,62.23497037252863
3.65,-0.13996540350824455,-0.05950115833498571,63.0314754547117
3.66,-0.1486880022265887,-0.06703976663082101,63.658608766545505
3.67,-0.135927163360863,-0.06587307725170363,64.00650753807375
3.68,-0.14460937967773335,-0.07224499616842156,64.13010315427456
3.69,-0.145780469320474,-0.06355764756083994,64.11865911573746
3.7,-0.14691117656174082,-0.0693551963216847,64.09805984637065
3.71,-0.130677451169267,-0.04909069925978459,64.04083965368508
3.72,-0.1463458229411074,-0.05255486926239462,63.87375669104323
3.73,-0.10866904236603754,-0.03114163188874818,63.546457188881796
3.74,-0.10923439598667095,-0.002782105442510644,63.15507107091253
3.75,-0.06804434648337913,0.029059540073707955,62.72706402962449
3.76,-0.08601451513922703,-0.01610031343181966,62.27845771896966
3.77,-0.13649251698149642,-0.013192564517711764,61.84129544685194
3.78,-0.1382289602448705,-0.029992891577001846,61.43617648263813
3.79,-0.11735125868290787,-0.036346861426348735,61.03334632613175
3.8,-0.1794190097481623,-0.08671194446947691,60.61678332338083
3.81,-0.1637506379763219,-0.06761413678669417,60.213953166874454
3.82,-0.1741692975565663,-0.08035797462013003,59.797390164123534
3.83,-0.16318528435568846,-0.07050393663343103,59.42660331552107
3.84,-0.1713021470519254,-0.07745022570602213,59.101592621067056
3.85,-0.1846283395382845,-0.07224499616842156,58.8223580807615
3.86,-0.40907372692975114,-0.028826202197884482,58.55227877128562
3.87,-0.2890168473480976,0.14368228430514648,58.27075542327264
3.88,0.49682468533235224,0.47827084916863627,58.012120152333885
3.89,1.6666624736273137,0.29764938421389686,57.72144157349121
3.9,1.1423373728912931,-0.10003015245878594,57.40787491757431
3.91,-0.36962012068983335,-0.35995059705876425,57.1034634924871
3.92,-0.27916354138848665,-0.16949304318469685,56.83338418301123
3.93,-0.17477503357867352,-0.006838594668364874,56.577037719779895
3.94,-0.08197627499184548,-0.012043824205965434,56.37333383381928
3.95,-0.05124526747027188,0.008220672855934677,56.17191875556609
3.96,-0.06630790322000507,0.0030154433183341173,55.970503677312905
3.97,-0.03093291952894268,0.025003050847853724,55.746200521985486
3.98,-0.031498273149576095,0.033116029299562186,55.52189736665807
3.99,-0.008318774703605996,0.05104714760322756,55.2518180571822
4.0,-0.008318774703605996,0.046416288221500165,55.00462682478055
4.01,0.031134831536311757,0.0753681338909819,54.85814313150551
4.02,0.02301796884007484,0.06321661528079024,54.75743559237891
4.03,0.06360228232125943,0.09678137126462834,54.656728053252316
4.04,0.09029504969545148,0.11530480879153793,54.53313243705149
4.05,0.12740647664988794,0.1407745353910386,54.398092782313554
4.06,0.15640104090808746,0.16278009198792923,54.21956578113459
4.07,0.21148263651837182,0.2102374261169495,54.01586189517398
4.08,0.2538437756644043,0.2467099310148955,53.80300277838367
4.09,0.3275012759526438,0.3011315032838779,53.59014366159337
4.1,0.3814117819201875,0.3590172455554703,53.4116166604144
4.11,0.4655283241901452,0.40995669875447166,53.288021044213586
4.12,0.501468661501841,0.44005728473569977,53.24224489006513
4.13,0.524688542349285,0.457431981950863,53.43221592978121
4.14,0.4272458075929681,0.3914332612275621,54.25160908903851
4.15,0.31474043708691807,0.3167651409640506,56.496929450020104
4.16,0.1726347663005613,0.20388345626760263,61.12260982672123
4.17,0.05431432998228186,0.12052798739650952,68.28428914324662
4.18,-0.054718153997020014,0.038895628993035905,76.18754215697696
4.19,-0.10689221670118966,-0.010877134826848066,82.50694023717082
4.2,-0.13705787060212984,-0.03114163188874818,86.51464253286785
4.21,-0.15098979911059618,-0.030567261732875012,88.35484392963563
4.22,-0.1643159915969553,-0.0444598398780572,88.107652697234
4.23,-0.17243285429319222,-0.04792400988066722,86.40249095520414
4.24,-0.17824792010542168,-0.05487029895325832,83.96719955450646
4.25,-0.17069641102981817,-0.04271878034306666,82.14759742710548
4.26,-0.17013105740918474,-0.04560858018980353,81.20460865164736
4.27,-0.14808226620448148,-0.03519812111460241,80.57518653210613
4.28,-0.16782926052517727,-0.048516329103911425,79.35296321634245
4.29,-0.1608431050702072,-0.0421444101871935,76.93827108501158
4.3,-0.1637506379763219,-0.045034210033930364,73.93077775745824
4.31,-0.14404402605709993,-0.03230832126786554,71.20251897021048
4.32,-0.16257954833358124,-0.048516329103911425,69.23872195724186
4.33,-0.15680486492282564,-0.038662291117212436,67.90205825610705
4.34,-0.16548708123969597,-0.04329315049893983,66.93847021128212
4.35,-0.1591066618068331,-0.0421444101871935,65.97259335874978
4.36,-0.1689599677664441,-0.05198049910652145,64.83734473586816
4.37,-0.16548708123969597,-0.03925461034045664,63.53501315034468
4.38,-0.16956570378855132,-0.04620089941304773,62.2120822954544
4.39,-0.16839461414581067,-0.04620089941304773,60.9875701719833
4.4,-0.18054971698942915,-0.058926788179112545,59.932429818861465
4.41,-0.16722352450307001,-0.04388546972218403,58.989441043403346
4.42,-0.17186750067255882,-0.05546261817650252,57.86792526676626
4.43,-0.16956570378855132,-0.05314718848563882,56.90204841423391
4.44,-0.16956570378855132,-0.05718572864412201,56.46488614211619
4.45,-0.16144884109231442,-0.04966506941565776,56.50837348855722
4.46,-0.16722352450307001,-0.05546261817650252,56.890604375696796
4.47,-0.1637506379763219,-0.04560858018980353,57.46280630255245
4.48,-0.17768256648478825,-0.05950115833498571,58.13571576853471
4.49,-0.16722352450307001,-0.050239439571530924,58.842957350128295
4.5,-0.17303859031529947,-0.06181658802584941,59.64175124001879
4.51,-0.15793557216409246,-0.04734963972479406,60.47258843781321
4.52,-0.18232654265427703,-0.05835241802323938,61.392689136197106
4.53,-0.16665817088243662,-0.05198049910652145,62.367721219559144
4.54,-0.1840629859176511,-0.06529870709583047,63.29926595648015
4.55,-0.15737021854345903,-0.05198049910652145,64.04083965368508
4.56,-0.17069641102981817,-0.05546261817650252,64.46884669497311
4.57,-0.13879431386550392,-0.030567261732875012,64.58099827263682
4.58,-0.11153619287067844,-0.009728394515101737,64.41162650228755
4.59,-0.1080633063439303,0.032523710076317984,64.23309950110858
4.6,-0.09821000038431932,0.0007000136274704201,64.10950388490777
4.61,-0.11153619287067844,0.0018487539392167507,63.99735230724405
4.62,-0.13879431386550392,-0.017249053743565994,63.78220438274632
4.63,-0.1278103006646261,-0.022454283281166554,63.42286157268097
4.64,-0.16492172761906254,-0.05198049910652145,62.985699300563255
4.65,-0.18345724989554385,-0.06761413678669417,62.47071756639316
4.66,-0.17768256648478825,-0.06818850694256734,61.96489106305276
4.67,-0.1794190097481623,-0.06992956647755787,61.470508598249474
4.68,-0.18054971698942915,-0.06878082616581153,61.021902287594635
4.69,-0.17768256648478825,-0.06355764756083994,60.69689159314063
4.7,-0.26987558904950903,-0.06529870709583047,60.438256322201866
4.71,-0.44852733316966886,0.018631131931135796,60.20250912833734
4.72,-0.07616120917961605,0.2530818499316134,59.89809770325013
4.73,1.090728663807757,0.5679982369564474,59.49526754674375
4.74,1.733333818460583,0.09331720126201831,59.11303665960417
4.75,0.1419037587789877,-0.2818003577252717,58.83151331159119
4.76,-0.34644062224386324,-0.21059640746437025,58.60721015626377
4.77,-0.23914458152793544,-0.039828980496329804,58.41723911654769
4.78,-0.12025879158902258,0.00705398347681731,58.22726807683161
4.79,-0.06630790322000507,0.0059052431650709804,58.03500822940811
4.8,-0.07151723301012727,0.006479613320944145,57.88852453613306
4.81,-0.06400610633599758,0.014000272549408402,57.643622111438845
4.82,-0.04716664492141651,0.019223451154379997,57.32776664781452
4.83,-0.028631122644935197,0.030208280385454284,57.03708806897185
4.84,-0.01062057158761348,0.04006231837215327,56.84482822154835
4.85,0.009651393952241906,0.06204992590167288,56.73267664388464
4.86,0.021281525576700773,0.06493972574840974,56.609081027683814
4.87,0.045632113665411526,0.08520422281030986,56.46488614211619
4.88,0.06824625849074821,0.09620700110875517,56.26118225615558
4.89,0.10418659580244402,0.12341778724324638,56.03687910082816
4.9,0.1343522497033842,0.1390514249234191,55.801131906963626
4.91,0.1946835575052646,0.18187789967071197,55.553940674561986
4.92,0.2358332246070826,0.2102374261169495,55.27470613425643
4.93,0.3094907248953221,0.27334634699351357,55.02751490185478
4.94,0.3709931223399431,0.31444971127318694,54.84669909296839
4.95,0.43419158064646435,0.3665379047839346,54.75743559237891
4.96,0.4858406721314744,0.4122721284453354,54.71394824593788
4.97,0.5293325185187737,0.4498933736550277,54.80321174652736
4.98,0.5061126376713297,0.42905450643725446,55.43034505836116
4.99,0.410406346178387,0.35727618602047984,57.339210686351635
5.0,0.261354902338534,0.24613556085902233,61.527728790935036
5.01,0.12219714685976574,0.1459977139960102,68.27284510470952
5.02,0.011387837215615974,0.06204992590167288,76.16465407990273
5.03,-0.05875639414440157,0.013425902393535237,82.85483900869907
5.04,-0.10632686308055624,-0.029992891577001846,87.31114761505093
5.05,-0.1289410079058929,-0.03925461034045664,89.52213586042117
5.06,-0.13940004988761115,-0.05429592879738515,89.61368816871808
5.07,-0.1486880022265887,-0.050831758794775125,88.35484392963563
5.08,-0.145780469320474,-0.05718572864412201,86.27889533900331
5.09,-0.14404402605709993,-0.05546261817650252,84.55084551989924
5.1,-0.13879431386550392,-0.06472433693995731,83.55063655175555
5.11,-0.14230758279372585,-0.06472433693995731,82.80906285455062
5.12,-0.1289410079058929,-0.056036988332375685,81.65321496230219
5.13,-0.12025879158902258,-0.04097772080807613,79.51089094815461
5.14,-0.12837565428525952,-0.04734963972479406,76.75974408383262
5.15,-0.1231663244951373,-0.0421444101871935,73.98799795014382
5.16,-0.1254681213791448,-0.053721558641511985,71.78616493560325
5.17,-0.12082414520965601,-0.038662291117212436,70.28241827182659
5.18,-0.11852234832564852,-0.04620089941304773,69.2730540728532
5.19,-0.11678590506227446,-0.0421444101871935,68.39644072091033
5.2,-0.12025879158902258,-0.05429592879738515,67.39852056047407
5.21,-0.11965305556691536,-0.04157004003132033,66.13967632139163
5.22,-0.13011209754863357,-0.05546261817650252,65.0845359682698
5.23,-0.1289410079058929,-0.050831758794775125,64.17587930842302
5.24,-0.13419072009748895,-0.06009347755822991,63.08640683968985
5.25,-0.1254681213791448,-0.05140612895064829,61.90767087036719
5.26,-0.13649251698149642,-0.06240890724909361,60.774711055192995
5.27,-0.13358498407538172,-0.05950115833498571,59.909541741787244
5.28,-0.130677451169267,-0.0693551963216847,59.460935431132405
5.29,-0.12663921102188544,-0.06298327740496677,59.406004046154266
5.3,-0.13184854081200764,-0.07050393663343103,59.69668262499694
5.31,-0.13128318719137422,-0.061242217869976245,60.191065089800226
5.32,-0.12954674392800017,-0.0693551963216847,60.72893490104454
5.33,-0.12025879158902258,-0.05718572864412201,61.38124509765999
5.34,-0.1231663244951373,-0.06646539647494784,62.1205299871575
5.35,-0.1260334749997782,-0.05429592879738515,63.06351876261562
5.36,-0.13419072009748895,-0.07050393663343103,64.10950388490777
5.37,-0.12199523485239666,-0.05429592879738515,65.11886808388114
5.38,-0.13475607371812237,-0.07109625585667523,65.94970528167555
5.39,-0.13649251698149642,-0.06529870709583047,66.5104631699941
5.4,-0.1289410079058929,-0.0693551963216847,66.79198651800708
5.41,-0.12663921102188544,-0.05314718848563882,66.8148745950813
5.42,-0.13419072009748895,-0.07456042585928527,66.7233222867844
5.43,-0.1260334749997782,-0.06472433693995731,66.54479528560543
5.44,-0.11965305556691536,-0.05140612895064829,66.37542351525616
5.45,-0.09647355712094526,-0.028251832042011316,66.16256439846586
5.46,-0.06109857342988287,-0.006246275445120672,65.83755370401184
5.47,-0.048337734564157166,0.03194933992044482,65.34317123920856
5.48,-0.05298171073364595,-0.016674683587692828,64.73663719674155
5.49,-0.08835669442470834,-0.00915402435922857,64.14154719281167
5.5,-0.10111753329043403,-0.02476971297203025,63.67005280508262
5.51,-0.08952778406744899,-0.030567261732875012,63.29011072565046
5.52,-0.1330196304547483,-0.07109625585667523,62.93076791558511
5.53,-0.13766360662423707,-0.0716706260125484,62.49131683575997
5.54,-0.14230758279372585,-0.08439651477861322,62.00837840949379
5.55,-0.13766360662423707,-0.07341168554753894,61.57121613737607
5.56,-0.13996540350824455,-0.08439651477861322,61.25764948145917
5.57,-0.14925335584722213,-0.08439651477861322,60.9875701719833
5.58,-0.3017776862138233,-0.06529870709583047,60.72893490104454
5.59,-0.34296773571711514,0.04526754790975383,60.438256322201866
5.6,0.18131698261743165,0.38217154246410734,60.14528893565177
5.61,1.4126167859555403,0.553513339588021,59.94387385739858
5.62,1.4769863339048024,-0.06355764756083994,59.7539028176825
5.63,-0.25945692946926463,-0.3854203236582649,59.573087008796115
5.64,-0.2426174680546836,-0.16023132442124208,59.36022789200581
5.65,-0.10923439598667095,-0.010877134826848066,59.147368775215504
5.66,-0.04543020165804245,-0.00915402435922857,58.94595369696231
5.67,-0.02455250009607983,-0.0016154160633932773,58.73080577246459
5.68,-0.022250703212072346,-0.007412964824238039,58.49505857860006
5.69,-0.0054112417974912785,0.020946561621999496,58.24786734619841
5.7,-0.0025037088913765614,0.0169080214635163,58.057896306482334
5.71,0.01312428047899004,0.033690399455435345,57.88852453613306
5.72,0.029963741893571108,0.04237774806301697,57.77637295846935
5.73,0.03925169423254868,0.05395489651733546,57.63217807290173
5.74,0.0653387255846335,0.06493972574840974,57.451362264015344
5.75,0.08447998388322205,0.08462985265443669,57.272835262836374
5.76,0.11868387793154378,0.09678137126462834,57.025644030434734
5.77,0.1442055556629952,0.12630758708998324,56.801340875107314
5.78,0.18483025154565358,0.14540539477276598,56.63196910475804
5.79,0.2340967813437085,0.18882418874330306,56.4763301806533
5.8,0.286311226449352,0.22818649348798592,56.31840244884114
5.81,0.35589010418873607,0.28203369560109515,56.11698737058795
5.82,0.40984099255775364,0.31848825143167014,55.94761560023868
5.83,0.47711807341313023,0.38159717230823414,55.858352099649196
5.84,0.534541848308896,0.4279057661255081,55.881240176723416
5.85,0.5507755737013698,0.44874463334328135,56.29551437176691
5.86,0.5177023868943148,0.42038510689704384,57.980076844429966
5.87,0.4040259267455242,0.34627340772203447,61.976335101589875
5.88,0.2538437756644043,0.23455841240470385,68.77867160804992
5.89,0.11347454814142158,0.1361436760093112,76.83756354588499
5.9,0.007349597068234423,0.045841918065627,83.76349566854586
5.91,-0.059927483787142216,0.0018487539392167507,88.59059112350018
5.92,-0.09473711385757119,-0.029400572353757645,91.16092217893578
5.93,-0.12082414520965601,-0.04620089941304773,91.64386060520195
5.94,-0.12954674392800017,-0.05777804786736621,90.64594044476569
5.95,-0.14170184677161862,-0.05835241802323938,88.57914708496305
5.96,-0.13241389443264107,-0.06355764756083994,86.61535007199444
5.97,-0.13184854081200764,-0.04792400988066722,85.37023867915653
5.98,-0.12720456464251886,-0.05718572864412201,84.53940148136212
5.99,-0.1231663244951373,-0.050239439571530924,83.50714920531452
6.0,-0.12025879158902258,-0.05487029895325832,81.48613199966034
6.01,-0.12082414520965601,-0.05140612895064829,78.63427759621175
6.02,-0.1156148154195338,-0.05718572864412201,75.73893584632212
6.03,-0.11153619287067844,-0.04097772080807613,73.42495125411784
6.04,-0.1179166123035413,-0.050831758794775125,71.92120459034119
6.05,-0.1231663244951373,-0.04677526956892089,71.00110389195729
6.06,-0.11852234832564852,-0.048516329103911425,70.29386231036369
6.07,-0.12954674392800017,-0.04677526956892089,69.31654141929424
6.08,-0.12373167811577072,-0.05835241802323938,67.97072248732974
6.09,-0.13128318719137422,-0.05718572864412201,66.48757509291987
6.1,-0.1289410079058929,-0.06066784771410308,65.1646442380296
6.11,-0.13358498407538172,-0.05429592879738515,64.13010315427456
6.12,-0.1278103006646261,-0.05661135848824885,63.345042110628604
6.13,-0.13475607371812237,-0.058926788179112545,62.68357668318347
6.14,-0.13184854081200764,-0.06066784771410308,62.00837840949379
6.15,-0.13419072009748895,-0.06646539647494784,61.38124509765999
6.16,-0.135927163360863,-0.07513479601515843,60.94408282554227
6.17,-0.12954674392800017,-0.06009347755822991,60.85253051724536
6.18,-0.1254681213791448,-0.06992956647755787,61.09972174964701
6.19,-0.13649251698149642,-0.06529870709583047,61.66047963796555
6.2,-0.13184854081200764,-0.07572711523840263,62.45927352785605
6.21,-0.1289410079058929,-0.05777804786736621,63.39081826477705
6.22,-0.12373167811577072,-0.07513479601515843,64.28803088608673
6.23,-0.1254681213791448,-0.05661135848824885,65.11886808388114
6.24,-0.12373167811577072,-0.07281936632429473,65.88104105045288
6.25,-0.1231663244951373,-0.06009347755822991,66.6226147476578
6.26,-0.12429703173640413,-0.06878082616581153,67.26348090573615
6.27,-0.12256058847303007,-0.056036988332375685,67.70064317785386
6.28,-0.12490276775851138,-0.06240890724909361,67.89061421756993
6.29,-0.12720456464251886,-0.058926788179112545,67.91350229464416
6.3,-0.12142988123176324,-0.06529870709583047,67.81279475551757
6.31,-0.13241389443264107,-0.0693551963216847,67.62282371580149
6.32,-0.1289410079058929,-0.07224499616842156,67.31841229071428
6.33,-0.1231663244951373,-0.058926788179112545,66.89269405713367
6.34,-0.1179166123035413,-0.06761413678669417,66.35253543818193
6.35,-0.11618016904016722,-0.050239439571530924,65.7917775498634
6.36,-0.08601451513922703,-0.03288269142373871,65.25390773861908
6.37,-0.06747899286274572,-0.0033564755983838093,64.74808123527868
6.38,-0.04890308818479058,0.024428680691980557,64.27658684754961
6.39,-0.05298171073364595,-0.004523164977501176,63.793648421283436
6.4,-0.08080518534910483,-0.01782342389943916,63.26722264857624
6.41,-0.0953024674782046,-0.011469454050092268,62.74995210669872
6.42,-0.07503050193834922,-0.033457061579611876,62.27845771896966
6.43,-0.11270728251341909,-0.05429592879738515,61.90767087036719
6.44,-0.12954674392800017,-0.07919128524101265,61.62843633006163
6.45,-0.15098979911059618,-0.08267340431099372,61.41557721327133
6.46,-0.1278103006646261,-0.07572711523840263,61.200429288773606
6.47,-0.13011209754863357,-0.07109625585667523,60.96468209490907
6.48,-0.12025879158902258,-0.08035797462013003,60.69689159314063
6.49,-0.24205211443405017,-0.06009347755822991,60.40392420659053
6.5,-0.3626743476363371,0.008220672855934677,60.14528893565177
6.51,0.06707516884800756,0.3376040081818239,59.94387385739858
6.52,1.286179486941024,0.5662571774214568,59.74245877914539
6.53,1.6104097883742887,-0.010877134826848066,59.55019893172189
6.54,-0.12025879158902258,-0.37789966442980066,59.348783853468696
6.55,-0.2327641620950726,-0.203075748235906,59.124480698141284
6.56,-0.12082414520965601,-0.04792400988066722,58.900177542813864
6.57,-0.03557689569843146,0.00010769440422621849,58.71020650309779
6.58,-0.004240152154750629,-0.016674683587692828,58.49505857860006
6.59,-0.0007672656280024947,0.012851532237662073,58.259311384735526
6.6,0.002140267278112222,0.0035898134742072827,58.03500822940811
6.61,0.014901106143837923,0.025003050847853724,57.85648122822914
6.62,0.03577880770580054,0.038895628993035905,57.698553496416984
6.63,0.04793391054941901,0.048731717912363866,57.540625764604826
6.64,0.06941734813348886,0.05221383698234493,57.417030148404
6.65,0.07866491807099261,0.07016290435338134,57.2957233399106
6.66,0.11464563778416223,0.08520422281030986,57.18357176224689
6.67,0.13725978260949892,0.1072097794072005,57.025644030434734
6.68,0.16681970048833186,0.12225109786412901,56.84482822154835
6.69,0.20857510361225712,0.16509552167879293,56.66630122036938
6.7,0.24976515311554892,0.18650875905243938,56.43055402650485
6.71,0.2892187593554667,0.23455841240470385,56.19480683264032
6.72,0.364006966884973,0.2785515765311141,55.98194771585001
6.73,0.4196942985173646,0.33586294864683336,55.824019984037854
6.74,0.47421054050701555,0.394323061074299,55.746200521985486
6.75,0.5351072019295293,0.4348520551980992,55.7576445605226
6.76,0.5873216470351728,0.46784244102606415,55.993391754387126
6.77,0.5357129379516365,0.4516344331900182,56.913492452771024
6.78,0.44868886277556413,0.3630737347813246,59.55019893172189
6.79,0.3071889280113146,0.26465899838593193,64.84878877440526
6.8,0.1593085738142022,0.14540539477276598,72.50485055573395
6.81,0.04676282090667836,0.06493972574840974,80.17235637559975
6.82,-0.0025037088913765614,0.013425902393535237,86.03170410660168
6.83,-0.054152800376386596,-0.018415743122683362,89.60224413018098
6.84,-0.06574254959937165,-0.04040335065220297,90.99383921629394
6.85,-0.09647355712094526,-0.04560858018980353,90.45368059734218
6.86,-0.08779134080407491,-0.05255486926239462,88.60203516203728
6.87,-0.09239493457208989,-0.0421444101871935,86.35671480105569
6.88,-0.09590820350031183,-0.056036988332375685,84.78659271376377
6.89,-0.10055217966980062,-0.04909069925978459,83.89853532328378
6.9,-0.08023983172847142,-0.05314718848563882,83.06769812548937
6.91,-0.08779134080407491,-0.0421444101871935,81.451799884049
6.92,-0.0773322988223567,-0.045034210033930364,78.73498513533835
6.93,-0.08371271825521956,-0.0421444101871935,75.62678426865841
6.94,-0.07906874208573077,-0.04734963972479406,72.92141355848487
6.95,-0.0825416286124789,-0.0375135508054661,71.09036739254677
6.96,-0.07789765244299011,-0.03808792096133927,69.95740757737256
6.97,-0.07963409570636419,-0.03693918064959294,69.1815017645563
6.98,-0.08662025116133427,-0.04909069925978459,68.31862125885797
6.99,-0.07503050193834922,-0.039828980496329804,67.11699721246109
7.0,-0.08544916151859362,-0.050239439571530924,65.63613862575865
7.01,-0.09590820350031183,-0.050831758794775125,64.2651428090125
7.02,-0.09126422733082305,-0.05487029895325832,63.120738955301185
7.03,-0.08314736463458614,-0.05255486926239462,62.18919421838018
7.04,-0.10228862293317469,-0.07050393663343103,61.34691298204865
7.05,-0.09300067059419712,-0.05546261817650252,60.60533928484372
7.06,-0.09821000038431932,-0.06414996678408415,59.989650011547035
7.07,-0.10576150945992283,-0.06472433693995731,59.65090647084848
7.08,-0.08662025116133427,-0.06355764756083994,59.64175124001879
7.09,-0.09938109002705997,-0.05777804786736621,59.886653664713016
7.1,-0.08952778406744899,-0.0716706260125484,60.3810361295163
7.11,-0.10459041981718217,-0.06355764756083994,61.09972174964701
7.12,-0.09821000038431932,-0.06066784771410308,61.98777914012699
7.13,-0.09417176023693777,-0.05718572864412201,63.04291949324882
7.14,-0.08023983172847142,-0.05718572864412201,64.1644352698859
7.15,-0.08080518534910483,-0.050239439571530924,65.1646442380296
7.16,-0.09356602421483054,-0.06818850694256734,66.0046366666537
7.17,-0.09821000038431932,-0.06009347755822991,66.66839090180626
7.18,-0.0848838078979602,-0.06703976663082101,67.13988528953531
7.19,-0.09703891074157867,-0.05950115833498571,67.47634002252644
7.2,-0.09182958095145648,-0.06414996678408415,67.58849160019015
7.21,-0.0953024674782046,-0.06009347755822991,67.49922809960067
7.22,-0.08427807187585297,-0.05718572864412201,67.27492494427325
7.23,-0.09356602421483054,-0.050831758794775125,66.95906948064894
7.24,-0.06340037031389036,-0.036346861426348735,66.59972667058358
7.25,-0.035011542077798045,0.006479613320944145,66.16256439846586
7.26,-0.011226307609720711,0.019223451154379997,65.64758266429577
7.27,-0.021644967189965114,-0.013784883740955966,65.05249266036589
7.28,-0.05298171073364595,-0.020138853590302857,64.38873842521332
7.29,-0.061663927050516286,-0.01782342389943916,63.78220438274632
7.3,-0.059927483787142216,-0.04097772080807613,63.29926595648015
7.31,-0.10923439598667095,-0.06818850694256734,62.95136718495191
7.32,-0.0953024674782046,-0.0763014853942758,62.6263564904979
7.33,-0.09703891074157867,-0.0716706260125484,62.20063825691729
7.34,-0.09182958095145648,-0.07745022570602213,61.72914386918823
7.35,-0.10111753329043403,-0.0763014853942758,61.280537558533396
7.36,-0.09065849130871582,-0.07456042585928527,60.90975070993093
7.37,-0.24726144422417237,-0.05546261817650252,60.662559477529285
7.38,-0.3017776862138233,0.02557742100372689,60.53896386132846
7.39,0.2080097499916237,0.3468657269452787,60.49318770718001
7.4,1.4648312310611837,0.4799939596362558,60.39248016805342
7.41,1.6892766184526504,-0.016674683587692828,60.12240085857755
7.42,-0.17477503357867352,-0.36632251597548215,59.77450208704931
7.43,-0.24322320407679082,-0.16486218380296946,59.561642970259
7.44,-0.1330196304547483,-0.028251832042011316,59.48382350820663
7.45,-0.018737434283850395,0.0035898134742072827,59.48382350820663
7.46,0.02879265225083046,-0.001041045907520112,59.406004046154266
7.47,0.03400198204095266,0.013425902393535237,59.20230016019365
7.48,0.046197467286044944,0.012277162081788907,58.92306561988809
7.49,0.05027608983490031,0.025003050847853724,58.66443034894933
7.5,0.06069474941514471,0.02731848053871742,58.55227877128562
7.51,0.08217818699921456,0.04526754790975383,58.57516684835985
7.52,0.09667546912831433,0.04469317775388067,58.58661088689696
7.53,0.1239335901231398,0.07188601482100083,58.40579507801058
7.54,0.1494552678545912,0.08174005280769983,58.06934034501945
7.55,0.16799079013107251,0.10431997956046364,57.79926103554358
7.56,0.20162933055876084,0.12341778724324638,57.7099975349541
7.57,0.23934649353530452,0.1564081730712113,57.68710945787987
7.58,0.2868765800699854,0.1836189592057025,57.56351384167905
7.59,0.3408274684390029,0.2362994719396944,57.272835262836374
7.6,0.39942233297750923,0.2744950873052599,56.890604375696796
7.61,0.45741146149390827,0.3277499701951249,56.577037719779895
7.62,0.5269903392332924,0.3769663129265068,56.384777872356395
7.63,0.5693514783793249,0.42384927689965385,56.34129052591537
7.64,0.607633994976502,0.4417983442706903,56.50837348855722
7.65,0.5554195498708585,0.41979278767379963,57.24994718576215
7.66,0.43883555681595315,0.3231191108133975,59.293852468490556
7.67,0.2804961606371225,0.22066583425952166,63.61512142010447
7.68,0.1650832572249578,0.12456652755499271,70.27097423328946
7.69,0.04676282090667836,0.04295211821889014,77.69128882075363
7.7,-0.018737434283850395,-0.011469454050092268,83.93286743889513
7.71,-0.06109857342988287,-0.030567261732875012,88.09849746640431
7.72,-0.07151723301012727,-0.04677526956892089,90.06229447937292
7.73,-0.08952778406744899,-0.05546261817650252,90.10578182581395
7.74,-0.0848838078979602,-0.061242217869976245,88.87211447151316
7.75,-0.09938109002705997,-0.05718572864412201,86.86254130439609
7.76,-0.08835669442470834,-0.06472433693995731,85.18942287027015
7.77,-0.09590820350031183,-0.058926788179112545,84.21439078690811
7.78,-0.08892204804534175,-0.06646539647494784,83.44992901262896
7.79,-0.08601451513922703,-0.061242217869976245,82.10411008066446
7.8,-0.08080518534910483,-0.06761413678669417,79.65508583372224
7.81,-0.09239493457208989,-0.05718572864412201,76.72541196822128
7.82,-0.08371271825521956,-0.06066784771410308,74.05437337365908
7.83,-0.08023983172847142,-0.053721558641511985,72.044800206542
7.84,-0.08023983172847142,-0.06240890724909361,70.7195805439443
7.85,-0.09703891074157867,-0.06009347755822991,69.76514772994906
7.86,-0.09300067059419712,-0.06992956647755787,68.80155968512415
7.87,-0.09938109002705997,-0.06066784771410308,67.64571179287572
7.88,-0.0900931376880824,-0.06472433693995731,66.3090480917409
7.89,-0.09473711385757119,-0.058926788179112545,64.96094035206897
7.9,-0.09994644364769338,-0.07224499616842156,63.738717036305296
7.91,-0.11504946179890038,-0.0763014853942758,62.71561999108738
7.92,-0.10515577343781558,-0.07745022570602213,61.96489106305276
7.93,-0.11387837215615974,-0.06703976663082101,61.639880368598746
7.94,-0.11153619287067844,-0.07976565539688582,61.21187332731071
7.95,-0.11504946179890038,-0.07572711523840263,60.61678332338083
7.96,-0.10632686308055624,-0.08208108508774951,60.22539720541156
7.97,-0.11908770194628195,-0.07976565539688582,60.245996474778366
7.98,-0.1132726361340525,-0.08267340431099372,60.774711055192995
7.99,-0.12082414520965601,-0.08267340431099372,61.61699229152452
8.0,-0.1080633063439303,-0.07804254492926632,62.59202437488656
8.01,-0.11618016904016722,-0.0763014853942758,63.58078930449313
8.02,-0.10866904236603754,-0.0809323447760032,64.52377807995126
8.03,-0.11504946179890038,-0.0763014853942758,65.42099070126092
8.04,-0.1132726361340525,-0.07513479601515843,66.24038386051822
8.05,-0.12663921102188544,-0.08787863384859428,67.00484563479738
8.06,-0.10689221670118966,-0.08208108508774951,67.64571179287572
8.07,-0.11153619287067844,-0.07109625585667523,68.07143002645633
8.08,-0.09877535400495274,-0.07687585555014896,68.21791371973137
8.09,-0.1104054856294116,-0.07456042585928527,68.05998598791922
8.1,-0.09994644364769338,-0.07687585555014896,67.67775510077963
8.11,-0.10866904236603754,-0.07281936632429473,67.28636898281036
8.12,-0.09821000038431932,-0.07224499616842156,66.99340159626027
8.13,-0.11852234832564852,-0.07456042585928527,66.65694686326914
8.14,-0.11387837215615974,-0.08150671493187635,66.15112035992874
8.15,-0.11270728251341909,-0.07572711523840263,65.53314227892463
8.16,-0.10228862293317469,-0.06355764756083994,64.89456492855372
8.17,-0.09647355712094526,-0.04734963972479406,64.28803088608673
8.18,-0.0697807897467532,-0.045034210033930364,63.770760344209215
8.19,-0.059927483787142216,0.008795043011807844,63.31070999501726
8.2,-0.035011542077798045,-0.003930845754256974,62.82777156875109
8.21,-0.061663927050516286,-0.029400572353757645,62.34712195019234
8.22,-0.0825416286124789,-0.023620972660283922,61.90767087036719
8.23,-0.08544916151859362,-0.03114163188874818,61.54832806030184
8.24,-0.08835669442470834,-0.05546261817650252,61.26909351999628
8.25,-0.1278103006646261,-0.08439651477861322,60.9875701719833
8.26,-0.1179166123035413,-0.08439651477861322,60.63967140045506
8.27,-0.12429703173640413,-0.08439651477861322,60.303216667463936
8.28,-0.1231663244951373,-0.09250949323032168,60.021693319450954
8.29,-0.11965305556691536,-0.08150671493187635,59.84316631827198
8.3,-0.14925335584722213,-0.08324777446686689,59.765346856219615
8.31,-0.38993246863116254,-0.022454283281166554,59.6623505093856
8.32,-0.19448164549789548,0.17667267013311141,59.50671158528086
8.33,0.7207047191031855,0.5523645992762746,59.259520352879214
8.34,1.8035184322220745,0.25076642024074974,58.989441043403346
8.35,0.9422425735885372,-0.16717761349383314,58.76513788807593
8.36,-0.2629298159960128,-0.2968416761822002,58.6415422718751
8.37,-0.1817208066321698,-0.11623816029483182,58.57516684835985
8.38,-0.0593621301665088,0.0007000136274704201,58.474459309233254
8.39,-0.007147685060865346,-0.012618194361838598,58.316531577421095
8.4,-0.0007672656280024947,-0.012618194361838598,58.08078438355656
8.41,-0.0007672656280024947,0.008220672855934677,57.845037189692036
8.42,0.00791495068886784,0.004738553785953613,57.67566541934276
8.43,0.014901106143837923,0.025003050847853724,57.57495788021616
8.44,0.03170018515694518,0.02037219146612633,57.49713841816379
8.45,0.04328993437993023,0.033690399455435345,57.40787491757431
8.46,0.06881161211138163,0.05047277744735439,57.28427930137349
8.47,0.09316220020009239,0.06553204497165395,57.12635156956133
8.48,0.12219714685976574,0.0776835635818456,57.01419999189762
8.49,0.14073266913624705,0.09737369048787255,56.913492452771024
8.5,0.18713204842966108,0.11936129801739215,56.73267664388464
8.51,0.2207705888573494,0.1483131436868739,56.441998065041965
8.52,0.2799308070164891,0.18245226982658513,56.09409929351372
8.53,0.3240283894258957,0.22876086364385909,55.858352099649196
8.54,0.39069973425916504,0.2744950873052599,55.7576445605226
8.55,0.45393857496716017,0.33238082957685233,55.72331244491126
8.56,0.5194792125591627,0.38506134231084416,55.73475648344837
8.57,0.5647075022098361,0.4255903364346444,56.01399102375393
8.58,0.5809412276023099,0.4336853658189818,57.01419999189762
8.59,0.5061126376713297,0.38622803168996156,59.64175124001879
8.6,0.38258287156292814,0.29707501405802367,64.82590069733104
8.61,0.22484921140620476,0.18767544843155673,72.55062670988241
8.62,0.09780617636958117,0.07710919342597243,80.66673884040304
8.63,0.006178507425493773,0.021538880845243698,86.92891672791134
8.64,-0.04369375839466838,-0.023620972660283922,90.7580920224294
8.65,-0.08080518534910483,-0.045034210033930364,92.17257518561658
8.66,-0.0953024674782046,-0.06181658802584941,91.66674868227618
8.67,-0.10515577343781558,-0.06066784771410308,89.98218620961313
8.68,-0.1080633063439303,-0.06818850694256734,87.82841815692844
8.69,-0.1156148154195338,-0.06818850694256734,86.33611553168889
8.7,-0.10168288691106746,-0.06703976663082101,85.48239025682024
8.71,-0.1080633063439303,-0.06472433693995731,84.6286649819516
8.72,-0.09764464676368591,-0.06646539647494784,82.96699058636278
8.73,-0.10285397655380811,-0.061242217869976245,80.18380041413687
8.74,-0.09703891074157867,-0.05777804786736621,77.10764285536085
8.75,-0.10632686308055624,-0.06009347755822991,74.54875583846236
8.76,-0.10055217966980062,-0.06298327740496677,72.77492986520983
8.77,-0.11097083925004503,-0.06240890724909361,71.56186178027583
8.78,-0.10459041981718217,-0.061242217869976245,70.57538565837667
8.79,-0.11504946179890038,-0.061242217869976245,69.50880126671774
8.8,-0.1132726361340525,-0.06529870709583047,68.16069352704581
8.81,-0.12025879158902258,-0.06298327740496677,66.88125001859656
8.82,-0.1156148154195338,-0.06414996678408415,65.82610966547473
8.83,-0.13184854081200764,-0.0763014853942758,64.87167685147949
8.84,-0.1289410079058929,-0.06761413678669417,63.985908268706936
8.85,-0.13475607371812237,-0.07281936632429473,62.99714333910036
8.86,-0.1260334749997782,-0.07224499616842156,61.9992231786641
8.87,-0.130677451169267,-0.07513479601515843,61.16838598086969
8.88,-0.1278103006646261,-0.07687585555014896,60.68544755460351
8.89,-0.13532142733875577,-0.0809323447760032,60.461144399276094
8.9,-0.12490276775851138,-0.07513479601515843,60.52751982279135
8.91,-0.13475607371812237,-0.07341168554753894,60.90975070993093
8.92,-0.13128318719137422,-0.07456042585928527,61.447620521175246
8.93,-0.13358498407538172,-0.07224499616842156,62.0198224480309
8.94,-0.12429703173640413,-0.07109625585667523,62.649244567572126
8.95,-0.14925335584722213,-0.07919128524101265,63.4457496497552
8.96,-0.1382289602448705,-0.0763014853942758,64.457402656436
8.97,-0.13649251698149642,-0.0693551963216847,65.53314227892463
8.98,-0.1330196304547483,-0.06992956647755787,66.5104631699941
8.99,-0.14230758279372585,-0.07572711523840263,67.18337263597635
9.0,-0.130677451169267,-0.0739860557034121,67.53127140750459
9.01,-0.13879431386550392,-0.07109625585667523,67.62282371580149
9.02,-0.12837565428525952,-0.06703976663082101,67.55415948457882
9.03,-0.1411364931509852,-0.0716706260125484,67.46489598398934
9.04,-0.13419072009748895,-0.07224499616842156,67.37563248339985
9.05,-0.13996540350824455,-0.0693551963216847,67.20626071305057
9.06,-0.1330196304547483,-0.07281936632429473,66.88125001859656
9.07,-0.14287293641435928,-0.07804254492926632,66.36397947671905
9.08,-0.13705787060212984,-0.07341168554753894,65.70251404927392
9.09,-0.13996540350824455,-0.06761413678669417,65.05249266036589
9.1,-0.130677451169267,-0.0693551963216847,64.48944596433992
9.11,-0.130677451169267,-0.06587307725170363,64.04083965368508
9.12,-0.13128318719137422,-0.06992956647755787,63.60367738156736
9.13,-0.135927163360863,-0.05950115833498571,63.120738955301185
9.14,-0.11908770194628195,-0.04734963972479406,62.57142510551976
9.15,-0.08892204804534175,-0.02476971297203025,62.04271052510513
9.16,-0.0773322988223567,0.0059052431650709804,61.5941042144503
9.17,-0.05819104052376815,0.018056761775262633,61.22331736584783
9.18,-0.07151723301012727,-0.018990113278556525,60.886862632856705
9.19,-0.11965305556691536,-0.01956448343442969,60.573295976939804
9.2,-0.10402506619654875,-0.02767746188613815,60.31466070600105
9.21,-0.11097083925004503,-0.04271878034306666,60.078913512136516
9.22,-0.145780469320474,-0.08208108508774951,59.82027824119776
9.23,-0.15506842165945156,-0.07861691508513949,59.52959966235509
9.24,-0.1434382900349927,-0.07687585555014896,59.30300769932025
9.25,-0.15619912890071838,-0.08556320415773058,59.147368775215504
9.26,-0.14925335584722213,-0.08324777446686689,58.97799700486623
9.27,-0.17534038719930695,-0.07919128524101265,58.75369384953881
9.28,-0.380644516292185,-0.022454283281166554,58.483614540062945
9.29,-0.26410090563875344,0.15525943275946497,58.259311384735526
9.3,0.5397511780990181,0.5147254049992113,58.115116499167904
9.31,1.6950513018634061,0.30459567328648796,58.012120152333885
9.32,1.0507097039472058,-0.13824371689172246,57.91141261320729
9.33,-0.304685219119938,-0.33388855123601935,57.75577368910255
9.34,-0.20376959783687307,-0.13765139766847825,57.52002649523802
9.35,-0.08892204804534175,0.013425902393535237,57.272835262836374
9.36,-0.03440580605569082,-0.012618194361838598,57.04853210750896
9.37,-0.03210400917168333,-0.005671905289247507,56.85627226008546
9.38,-0.028631122644935197,-0.004523164977501176,56.755564720958866
9.39,-0.018737434283850395,0.00996173239092521,56.66630122036938
9.4,-0.00020191200736907754,0.020946561621999496,56.577037719779895
9.41,0.006178507425493773,0.029059540073707955,56.48548541148299
9.42,0.036344161326433956,0.04989840729148123,56.37333383381928
9.43,0.03577880770580054,0.045841918065627,56.217694909714545
9.44,0.07228449863812976,0.07188601482100083,56.04832313936527
9.45,0.08678178076722953,0.07825793373771876,55.858352099649196
9.46,0.1239335901231398,0.1002634903346094,55.6775362907628
9.47,0.14016731551561365,0.11358169832391843,55.553940674561986
9.48,0.19003958133577578,0.16046466229706555,55.441789096898276
9.49,0.2387407575131973,0.19113961843416677,55.28615017279353
9.5,0.30371604148456643,0.23918927178643123,55.016070863317665
9.51,0.3686509430544618,0.2993904437488874,54.75743559237891
9.52,0.4394412928380604,0.3555351264854893,54.55602051412572
9.53,0.47655271979249686,0.3908588910716889,54.455312974999124
9.54,0.5403569141211253,0.4429470845824366,54.590352629737055
9.55,0.5542484602281179,0.4585807222626093,55.38685771192013
9.56,0.5072837273140705,0.4186440473620533,57.643622111438845
9.57,0.38779220135305037,0.331232089265106,62.16630614130595
9.58,0.25731666219115246,0.22761212333211275,69.1815017645563
9.59,0.10418659580244402,0.11936129801739215,77.24268251009879
9.6,0.014295370121730691,0.04063668852802644,84.05646305509595
9.61,-0.050074177827531235,-0.0033564755983838093,88.56999185413336
9.62,-0.07503050193834922,-0.033457061579611876,90.63449640622858
9.63,-0.08952778406744899,-0.034623750958729244,90.57727621354302
9.64,-0.10515577343781558,-0.048516329103911425,89.20856920450429
9.65,-0.11387837215615974,-0.050239439571530924,87.09828849826062
9.66,-0.1132726361340525,-0.05429592879738515,85.34735060208232
9.67,-0.1156148154195338,-0.05777804786736621,84.28076621042337
9.68,-0.10515577343781558,-0.04388546972218403,83.42704093555473
9.69,-0.1080633063439303,-0.05198049910652145,82.01255777236754
9.7,-0.10459041981718217,-0.048516329103911425,79.53149021752142
9.71,-0.09821000038431932,-0.05140612895064829,76.48966477435674
9.72,-0.09239493457208989,-0.045034210033930364,73.61721110154134
9.73,-0.09994644364769338,-0.04329315049893983,71.56186178027583
9.74,-0.08952778406744899,-0.038662291117212436,70.18171073269998
9.75,-0.10576150945992283,-0.04271878034306666,69.20438984163053
9.76,-0.09590820350031183,-0.04271878034306666,68.21791371973137
9.77,-0.10632686308055624,-0.05140612895064829,66.94762544211181
9.78,-0.09994644364769338,-0.0421444101871935,65.50109897102072
9.79,-0.11214192889278567,-0.05661135848824885,64.19876738549725
9.8,-0.10979974960730438,-0.04792400988066722,63.120738955301185
9.81,-0.12490276775851138,-0.06355764756083994,62.2120822954544
9.82,-0.11214192889278567,-0.050831758794775125,61.358357020585764
9.83,-0.11270728251341909,-0.05661135848824885,60.47258843781321
9.84,-0.10923439598667095,-0.04620089941304773,59.61886316294457
9.85,-0.12142988123176324,-0.06240890724909361,58.900177542813864
9.86,-0.11270728251341909,-0.05718572864412201,58.428683155084805
9.87,-0.11908770194628195,-0.05718572864412201,58.33941965449532
9.88,-0.10576150945992283,-0.05546261817650252,58.563722809822735
9.89,-0.11618016904016722,-0.06181658802584941,59.07870454399283
9.9,-0.10576150945992283,-0.06587307725170363,59.69668262499694
9.91,-0.11097083925004503,-0.06472433693995731,60.303216667463936
9.92,-0.1104054856294116,-0.05661135848824885,60.93263878700515
9.93,-0.11735125868290787,-0.05950115833498571,61.717699830651114
9.94,-0.10749795272329689,-0.058926788179112545,62.71561999108738
9.95,-0.1179166123035413,-0.06703976663082101,63.770760344209215
9.96,-0.10402506619654875,-0.05835241802323938,64.70459388883765
9.97,-0.11214192889278567,-0.06066784771410308,65.38894739335701
9.98,-0.09417176023693777,-0.05487029895325832,65.70251404927392
9.99,-0.11097083925004503,-0.05950115833498571,65.66818193366257
