time_s,ECG1,ECG2,NIBP
0.0,0.16973521794101668,0.09678687637629764,94.03546670179877
0.01,0.21149874361909185,0.11183727568046965,98.36840597636566
0.02,0.24456583143992175,0.162779141410371,106.90006672037734
0.03,0.28223893773059694,0.15930118270591992,113.07408575599416
0.04,0.3089125969291042,0.20503945293171924,116.28471693641502
0.05,0.3269241915425293,0.16799163194952277,117.11563111154595
0.06,0.3135529886711126,0.16856980922775633,115.92533110296307
0.07,0.2932727580949279,0.16682638235800593,113.17474910983573
0.08,0.21730782661464304,0.13094381096732632,108.4038359448704
0.09,0.1558140427149916,0.06262994178526897,103.44219221473153
0.1,0.09377028646073177,0.045845010646396296,99.48011792800204
0.11,0.056062806897893516,-0.015512941126758854,96.78604869492611
0.12,0.016636663726904023,-0.004518677805271501,95.03503614520812
0.13,0.022995719077063617,-0.041566498787467966,93.81118168534474
0.14,0.0061871889893444715,-0.020725431665910624,93.02530111587977
0.15,0.01718663608151242,-0.041566498787467966,92.47518471725431
0.16,0.009074543851038558,-0.025937922205062396,92.10520274129271
0.17,0.026467419565529126,-0.036354008248316194,91.93654747301429
0.18,0.01199627198489567,-0.029406985874463745,91.89151386734831
0.19,0.029389147699386237,-0.053138939387188874,91.95862276990937
0.2,0.018939672961826685,-0.02478156764859528,92.11579888380236
0.21,0.03461388506816601,-0.04619191701333643,92.23942054641482
0.22,0.02010836421536953,-0.029406985874463745,92.39659666030781
0.23,0.04561333216033396,-0.024194495335311976,92.43015111158833
0.24,0.026467419565529126,-0.013200232013824621,92.14935333508288
0.25,0.03519823069493744,-0.039831966952767285,91.34139746872285
0.26,0.03519823069493744,-0.010887522900890389,90.07339241506928
0.27,0.021277055468912377,-0.058351429926340646,88.61377378436639
0.28,0.014299281219818334,-0.015512941126758854,87.41287763327387
0.29,0.01718663608151242,-0.045035562456869314,86.76121486893102
0.3,0.0009624516205646956,-0.031719694987397976,86.60403875503803
0.31,0.0160523181001326,-0.031141517709164422,86.85128208026296
0.32,-0.005980949356366322,-0.03519765369184907,87.3678440276079
0.33,0.0061871889893444715,-0.04677898932661973,87.88440597495284
0.34,-0.014711760485774631,-0.058351429926340646,88.38948876791234
0.35,0.0015467972473361179,-0.058351429926340646,88.95020130904746
0.36,0.004434152109030204,-0.026516099483295953,89.56830962210978
0.37,-0.0007905852597495714,-0.0664548068566602,90.12902216324488
0.38,-0.013543069232231787,-0.043879207900402194,90.51048329359192
0.39,0.0056028433625730486,-0.040988321509234406,90.58907135053842
0.4,-0.01179003235191752,-0.029985163152697305,90.35330717969893
0.41,0.006771534616115894,-0.043879207900402194,89.91621630117628
0.42,0.03461388506816601,-0.02303814077884486,89.43320880511186
0.43,0.06709662726222448,-0.01377840929205818,88.84953795520588
0.44,0.09318594083396034,0.031372788620457844,88.25438795091443
0.45,0.08043345686147813,0.008797189664199833,87.69367540977933
0.46,0.056647152524664936,-0.005675032361738617,87.1541551536635
0.47,0.03925427681017437,-0.04735716660485329,86.62699706380891
0.48,-0.009487023116994855,-0.06587662957842665,86.04332621390292
0.49,-0.01584607846715445,-0.0699327655611113,85.48173066089201
0.5,-0.023408198343019916,-0.05603872081340641,84.88658065660057
0.51,-0.019902124582391382,-0.07051094283934486,84.31438896108003
0.52,-0.12893414388350619,-0.024194495335311976,83.82078532250597
0.53,-0.05413790365676412,-0.07108912011757842,83.38281143210752
0.54,0.46262987004215134,0.16335731868860456,83.04550089555065
0.55,1.0605873125901315,0.327177179199796,82.75410697653555
0.56,1.3801556238897734,0.04990114662908095,82.42827559436412
0.57,0.1320277383781784,0.08404918618505987,82.04681446401709
0.58,-0.09878878419653339,0.040632520107244524,81.65387417928461
0.59,-0.10054182107684766,0.049314074315797644,81.37307640277916
0.6,-0.058778295398772475,-0.011465700179123947,81.13731223193967
0.61,-0.014711760485774631,-0.04561373973510287,80.93510251238071
0.62,-0.010621341098374676,-0.04793534388308685,80.67726304464614
0.63,-0.007149640609909167,-0.07166729739581199,80.38586912563105
0.64,0.010243235104581402,-0.041566498787467966,80.17218025168664
0.65,0.012546244339504067,-0.06298574318725886,80.03707943468874
0.66,0.007355880242887316,-0.052560762108955314,79.91434078395207
0.67,0.028804802072614818,-0.057195075369873526,79.75716467005908
0.68,0.0375012399298601,-0.020725431665910624,79.49844219044871
0.69,0.038085585556631524,-0.031719694987397976,79.06046830005026
0.7,0.04908503264879947,-0.01666929568322597,78.5112349133006
0.71,0.07228699135884124,-0.003940500527037943,78.0052691084653
0.72,0.08390515734994364,0.01805692115098651,77.70239603506477
0.73,0.11580355391723068,0.020378525298970492,78.07326102290216
0.74,0.1285560378897129,0.05858270083763407,80.31787721119419
0.75,0.17379126405625359,0.09505234454159697,86.34619928730346
0.76,0.1958245315127525,0.10142118963721586,96.07875618240766
0.77,0.23700371156405628,0.12457496587170742,105.85634668317782
0.78,0.2834076289841398,0.1795640725492437,112.83832158515467
0.79,0.3094969425558757,0.1841983858101619,116.63262361548153
0.8,0.3263398459157578,0.20503945293171924,118.04720864051845
0.81,0.34081099349639127,0.1870892722013297,117.56420114445405
0.82,0.3048565508138673,0.1818767816621779,115.28514749300567
0.83,0.26659909889642064,0.14193807428881366,111.26656044622476
0.84,0.21091439799232042,0.09157438583714587,106.31639587047135
0.85,0.15756707959530586,0.05858270083763407,102.06204465285096
0.86,0.09377028646073177,0.006484480551265599,98.83993431804464
0.87,0.052591106409428004,-0.028828808596230188,96.62887258103312
0.88,0.03227650256108033,-0.03461947641361552,95.2928756129427
0.89,0.02358006470383504,-0.044457385178635754,94.52995335224863
0.9,0.02358006470383504,-0.02825063131799663,94.27123087263826
0.91,0.02591744721092073,-0.035775830970082634,94.22619726697229
0.92,0.02591744721092073,-0.036354008248316194,94.18116366130631
0.93,0.03110781130753748,-0.05198258483072176,94.17056751879667
0.94,0.020692709842140954,-0.043879207900402194,94.27123087263826
0.95,0.04389466855218272,-0.049669875717787526,94.46196143781178
0.96,0.03691689430308868,-0.02303814077884486,94.70920476303671
0.97,0.03574820304954583,-0.04561373973510287,94.88845617382478
0.98,0.03402953944139459,-0.03925378967453373,94.87786003131514
0.99,0.042141631671868456,-0.040988321509234406,94.51847419786318
1.0,0.0316921569343089,-0.03404129913538196,93.73259362839823
1.01,0.02358006470383504,-0.03751036280478331,92.45310942035923
1.02,0.04038859479155419,-0.028828808596230188,90.84779383014879
1.03,0.0160523181001326,-0.03866671736125042,89.3881751994459
1.04,-0.0019249032411293911,-0.03925378967453373,88.50163127613936
1.05,0.0038498064822587823,-0.04619191701333643,88.27734625968532
1.06,-0.0025092488679008132,-0.040410144231000845,88.54666488180533
1.07,0.00037810599379327326,-0.053138939387188874,89.06322682915028
1.08,-0.008902677490223434,-0.05661689809163997,89.59038491900486
1.09,-0.021070815835934228,-0.043879207900402194,90.06191326068384
1.1,-0.02399254396979134,-0.031141517709164422,90.51048329359192
1.11,-0.029182908066408088,-0.049091698439553966,91.02704524093686
1.12,-0.01876780660101156,-0.05546054353517285,91.5436071882818
1.13,-0.02571120757794258,-0.049091698439553966,91.86943857045323
1.14,-0.048913166287984346,-0.058351429926340646,91.85795941606779
1.15,-0.03732937356904498,-0.035775830970082634,91.52153189138672
1.16,-0.033823299808416446,-0.030563340430930862,91.06059969221738
1.17,0.0027154885008789623,-0.040410144231000845,90.56699605364334
1.18,0.03461388506816601,0.01516603475981872,90.03983796378874
1.19,0.05547846127112209,0.027903724951056495,89.43320880511186
1.2,0.03574820304954583,0.006484480551265599,88.84953795520588
1.21,0.011411926358124247,-0.009731168344423273,88.32149685347548
1.22,-0.019352152227782984,-0.04214467606570152,87.83937236928688
1.23,-0.06977774249094043,-0.0514044075524882,87.38991932450298
1.24,-0.06224999588723799,-0.06587662957842665,86.90779484031437
1.25,-0.08369891771696548,-0.06066413903927488,86.37975373858399
1.26,-0.07441813423294878,-0.07340182923051265,85.80756204306344
1.27,-0.20665211224410535,-0.03288494457891484,85.2689247988234
1.28,-0.0924297288463738,-0.03751036280478331,84.71880840019794
1.29,0.464932879277074,0.21892460264437438,84.17928814408211
1.3,1.0878453174154101,0.3069142893564722,83.75279340806911
1.31,1.17773142412172,0.04237594697699494,83.4048867290026
1.32,-0.046610157053061686,0.0823146543503592,83.10201365560206
1.33,-0.21651724135489347,0.036585279159609616,82.83269503348205
1.34,-0.21246119523965654,0.04990114662908095,82.56337641136204
1.35,-0.13708060938614305,-0.012622054735591063,82.29405778924202
1.36,-0.10112616670361908,-0.02303814077884486,82.02473916712201
1.37,-0.09820443856976196,-0.04677898932661973,81.755420545002
1.38,-0.09937312982330482,-0.035775830970082634,81.53025251667215
1.39,-0.09414839245452504,-0.040410144231000845,81.3845555571646
1.4,-0.07558682548649162,-0.044457385178635754,81.28389220332302
1.41,-0.08198025410881424,-0.03404129913538196,81.11523693504459
1.42,-0.06108130463369514,-0.0334631218571484,80.84591831292458
1.43,-0.06458737839432367,-0.020147254387677067,80.57659969080457
1.44,-0.058193949772001055,-0.009144096031139966,80.20573470296718
1.45,-0.05644091289168679,-0.014356586570291738,79.70065191000768
1.46,-0.03323895418164502,-0.0027841459705708264,79.1505355113822
1.47,-0.024542516324399737,0.027903724951056495,78.78055353542061
1.48,0.0050184977358016265,0.026738475359539632,78.92625049492815
1.49,0.0316921569343089,0.053948387576715856,80.58719583331421
1.5,0.053725424390807824,0.07825851836767454,85.59387316911904
1.51,0.08912989471872342,0.1263094977064081,94.67565031175617
1.52,0.12391564614770455,0.10199936691544942,104.57597946326301
1.53,0.1650948261990083,0.18766744947956326,112.18754183268763
1.54,0.1946902135313727,0.16046643229743676,116.60966530671065
1.55,0.2219482183566514,0.20156149422726816,118.44014892525094
1.56,0.21844214459602285,0.17840771799277658,118.39511531958496
1.57,0.17320691842948216,0.15756665087121924,116.43041389592257
1.58,0.12738734663617005,0.12167518444548989,112.66966631687623
1.59,0.056062806897893516,0.07247674558533897,107.5287711759493
1.6,0.00213114287410754,0.028481902229290052,102.88147967359643
1.61,-0.04310408329243315,0.030794611342224287,99.32294181410906
1.62,-0.07905852597495713,-0.015512941126758854,96.88671204876769
1.63,-0.10284483031177032,-0.027094276761529514,95.42797642994061
1.64,-0.09126103759283095,-0.025937922205062396,94.69772560865127
1.65,-0.10401352156531317,-0.02478156764859528,94.4955158890923
1.66,-0.08833930945897384,-0.03925378967453373,94.52995335224863
1.67,-0.1022604846849989,-0.01956907710944351,94.64209586047565
1.68,-0.0900923463392881,-0.040410144231000845,94.63061670609021
1.69,-0.08833930945897384,-0.024194495335311976,94.59706225480969
1.7,-0.07792420799357731,-0.028828808596230188,94.60854140919513
1.71,-0.08314894536235709,-0.020147254387677067,94.69772560865127
1.72,-0.0593626410255439,-0.03519765369184907,95.0800697508741
1.73,-0.06108130463369514,-0.0010407191008204048,95.5621942350627
1.74,-0.07269947062479754,-0.032306767300681286,95.35998451550375
1.75,-0.07441813423294878,-0.015512941126758854,94.17056751879667
1.76,-0.05994698665231532,-0.02188178622237774,92.39659666030781
1.77,-0.07269947062479754,0.004741053681515177,90.76920577320229
1.78,-0.06805907888278918,-0.03404129913538196,89.69104827284643
1.79,-0.06572169637570349,-0.01030934562265683,89.28751184560431
1.8,-0.05994698665231532,-0.02478156764859528,89.47824241077784
1.81,-0.06689038762924635,-0.01899089983120995,90.05043410629838
1.82,-0.05008185754152719,-0.03461947641361552,90.8248355213779
1.83,-0.057609604145229636,-0.012622054735591063,91.58864079394777
1.84,-0.05644091289168679,-0.03751036280478331,92.31800860336132
1.85,-0.07036208811771184,-0.012622054735591063,93.0588555671603
1.86,-0.05238486677644986,-0.023616318057078416,93.78910638844964
1.87,-0.05008185754152719,-0.016091118404992413,94.38337338086528
1.88,-0.048328820661212926,-0.03866671736125042,94.65269200298529
1.89,-0.06224999588723799,-0.01899089983120995,94.51847419786318
1.9,-0.05125054879507004,-0.043879207900402194,94.11405475874527
1.91,-0.06108130463369514,-0.016091118404992413,93.60897196578577
1.92,-0.03557633668873071,-0.024194495335311976,93.00322581898469
1.93,-0.00020623963297814905,-0.009731168344423273,92.30652944897587
1.94,0.01952401858859811,-0.005675032361738617,91.60011994833322
1.95,0.052006760782656584,0.04757954248109697,90.95993633837581
1.96,0.03866993118340294,0.009953544220666948,90.35330717969893
1.97,0.01199627198489567,0.01747874387275295,89.75904018728329
1.98,0.0027154885008789623,-0.010887522900890389,89.15241102860641
1.99,-0.06341868714078083,-0.029406985874463745,88.44511851608796
2.0,-0.053553558029992704,-0.0548823662569393,87.71575070667441
2.01,-0.0750024798597202,-0.03461947641361552,86.98638289726087
2.02,-0.06458737839432367,-0.06008596176104132,86.26761123035696
2.03,-0.18812491854823496,-0.007409564196439292,85.69541953483642
2.04,-0.09126103759283095,-0.04561373973510287,85.23448733566708
2.05,0.4388435657053381,0.20271784878373525,84.88658065660057
2.06,1.0240485242808361,0.3294898883127302,84.5501531319195
2.07,1.26761753082803,0.1048902533066172,84.24728005851897
2.08,0.004434152109030204,0.1048902533066172,84.00003673329404
2.09,-0.16956335158020153,0.0718985683071054,83.77575171683999
2.1,-0.16781031469988728,0.08462736346329343,83.56206284289559
2.11,-0.1138786506761013,0.022113057133671166,83.4048867290026
2.12,-0.06224999588723799,-0.031141517709164422,83.32629867205611
2.13,-0.06805907888278918,-0.011465700179123947,83.30422337516102
2.14,-0.05589094053707839,-0.04619191701333643,83.27066892388049
2.15,-0.058193949772001055,-0.01899089983120995,83.12408895249715
2.16,-0.048328820661212926,-0.04330103062216864,82.94483754170908
2.17,-0.048328820661212926,-0.01956907710944351,82.77618227343063
2.18,-0.029182908066408088,-0.03866671736125042,82.59693086264257
2.19,-0.026295553204714002,0.0024283445685809447,82.31613308613711
2.2,-0.013543069232231787,-0.029985163152697305,81.86756305322902
2.21,-0.0013405576143579688,0.008797189664199833,81.3280427971132
2.22,0.02997349332615766,0.0012719900121138281,80.8229600041537
2.23,0.016636663726904023,0.03774163371607673,80.56512053641913
2.24,0.05083806952911374,0.029060079507523612,81.04812803248353
2.25,0.07170264573206982,0.08520554074152699,83.43844118028312
2.26,0.11288182578337358,0.08926167672421165,89.64689767905627
2.27,0.14423024999605222,0.1442507834017479,99.14369040332097
2.28,0.19699322276629536,0.14541603299326478,108.2475428428532
2.29,0.21438609848078594,0.19403629457518215,114.55577968359212
2.3,0.2561496241588611,0.19693607600139967,117.89003252662546
2.31,0.2671834445231921,0.21139940299228838,119.11300397461306
2.32,0.2787672372421314,0.20446127565348568,118.5408122790925
2.33,0.2497561955365385,0.19230176274048147,116.20612887946854
2.34,0.20974570673877757,0.1517759830538339,112.01888656440919
2.35,0.12274695489416171,0.10662478514131789,107.11375559432174
2.36,0.07345568261238408,0.031950965898691404,103.0051013362089
2.37,0.013130589966275488,0.044688656089929175,99.96312542406646
2.38,-0.008902677490223434,-0.0033623232488043846,98.05405374857968
2.39,-0.04138541968428191,-0.016091118404992413,97.03329202015104
2.4,-0.03152029057349378,-0.02478156764859528,96.60591427226224
2.41,-0.04602581142629026,-0.014356586570291738,96.57235982098172
2.42,-0.044857120172747414,-0.05082623027425464,96.66242703231364
2.43,-0.05125054879507004,-0.024194495335311976,96.7295359348747
2.44,-0.03674502794227356,-0.03519765369184907,96.78604869492611
2.45,-0.0477444750344415,-0.022459963500611302,96.83108230059209
2.46,-0.026295553204714002,-0.043879207900402194,96.98825841448507
2.47,-0.030351599319950934,-0.010887522900890389,97.16750982527314
2.48,-0.015261732840383029,-0.010887522900890389,97.29113148788561
2.49,-0.030351599319950934,-0.016091118404992413,97.22402258532456
2.5,-0.015261732840383029,-0.03808854008301687,96.75249424364559
2.51,-0.02804859008502827,0.003584699125048061,95.80943756028765
2.52,-0.030935944946722357,-0.02535974492682884,94.61913755170477
2.53,-0.04310408329243315,-0.003940500527037943,93.54186306322471
2.54,-0.02571120757794258,-0.012043877457357506,92.38511750592237
2.55,-0.04251973766566173,-0.00509685508350506,91.39791022877425
2.56,-0.0477444750344415,-0.03461947641361552,91.00496994404178
2.57,-0.06224999588723799,-0.01899089983120995,91.18422135482984
2.58,-0.06458737839432367,-0.06587662957842665,91.82440496478726
2.59,-0.058193949772001055,-0.029985163152697305,92.54229361981535
2.6,-0.05066620316829861,-0.03866671736125042,93.16040193287768
2.61,-0.07211512499802611,-0.02303814077884486,93.58689666889069
2.62,-0.05589094053707839,-0.03751036280478331,93.92332419357174
2.63,-0.07558682548649162,-0.01377840929205818,94.14760921002579
2.64,-0.057609604145229636,-0.03751036280478331,94.27123087263826
2.65,-0.06572169637570349,-0.006831386918205734,94.22619726697229
2.66,-0.05530659491030697,-0.05430418897870574,93.9348033479572
2.67,-0.07558682548649162,-0.020147254387677067,93.49682945755875
2.68,-0.06108130463369514,-0.052560762108955314,92.96967136770417
2.69,-0.08314894536235709,-0.035775830970082634,92.30652944897587
2.7,-0.05702525851845821,-0.049091698439553966,91.58864079394777
2.71,-0.058193949772001055,-0.002197073657287521,90.99349078965633
2.72,-0.021070815835934228,0.0006938127338802698,90.54492075674824
2.73,0.0061871889893444715,0.04237594697699494,90.11754300885944
2.74,0.039804249164782764,0.012853325646884487,89.66897297595135
2.75,-0.008318331863452011,0.03774163371607673,89.0967812804308
2.76,-0.012958723605460364,0.0006938127338802698,88.40008491042198
2.77,-0.03963238280396764,-0.012043877457357506,87.72722986105985
2.78,-0.06689038762924635,-0.0664548068566602,87.17711346243438
2.79,-0.09414839245452504,-0.049669875717787526,86.71706427514086
2.8,-0.08545195459727975,-0.07513636106521333,86.31264483602294
2.81,-0.09126103759283095,-0.03925378967453373,85.91970455129045
2.82,-0.17361939769543847,-0.045035562456869314,85.54883956345306
2.83,-0.12893414388350619,-0.03461947641361552,85.2689247988234
2.84,0.35823824248304487,0.15987935998415348,85.01020231921304
2.85,0.9254316064451178,0.3885351309729511,84.67377479453197
2.86,1.38534598798639,0.1141499847934039,84.28083450979949
2.87,0.07115267337746142,0.10257754419368298,83.97796143639896
2.88,-0.16141688607756466,0.021534879855437606,83.73071811117403
2.89,-0.17069766956158136,0.08289283162859276,83.44992033466858
2.9,-0.10923825893409295,0.0012719900121138281,83.16912255816311
2.91,-0.08833930945897384,-0.01899089983120995,82.88920779353346
2.92,-0.07792420799357731,-0.057773252648107086,82.64196446830853
2.93,-0.0808115628552714,-0.025937922205062396,82.46183004564466
2.94,-0.05472224928353554,-0.03693218552654975,82.31613308613711
2.95,-0.07850855362034874,-0.035775830970082634,82.05829361840254
2.96,-0.0477444750344415,-0.045035562456869314,81.68742863056514
2.97,-0.05125054879507004,-0.021303608944144185,81.35100110588408
2.98,-0.048913166287984346,-0.043879207900402194,81.01369056932721
2.99,-0.046610157053061686,-0.022459963500611302,80.65518774775106
3.0,-0.026295553204714002,-0.03288494457891484,80.25076830863314
3.01,-0.01584607846715445,0.02384758896837184,79.81279441823469
3.02,0.009074543851038558,-0.002197073657287521,79.53199664172924
3.03,0.007355880242887316,0.048157719759330524,79.94789523523261
3.04,0.06709662726222448,0.05568291941141653,82.24902418357605
3.05,0.08098342921608652,0.10662478514131789,88.52370657303445
3.06,0.1192752544056962,0.0869489676112774,98.52558209025865
3.07,0.149420614092669,0.17725136343630946,108.12392118024074
3.08,0.21208308924586328,0.16220096413213744,114.90368636265863
3.09,0.2248355732183455,0.22124620679235837,118.5408122790925
3.1,0.2404754120525218,0.19230176274048147,119.78674203585099
3.11,0.2492062231819301,0.22413709318352615,119.24810479161097
3.12,0.24281279455960747,0.17088251834069057,116.90194223760155
3.13,0.16973521794101668,0.16972616378422345,112.54604465426377
3.14,0.12680300100939865,0.09678687637629764,107.16938534249735
3.15,0.03574820304954583,0.06552972321148652,102.58920274270554
3.16,0.007355880242887316,0.008219012385966274,99.27790820844308
3.17,-0.03323895418164502,0.01921327570745363,97.1560306708877
3.18,-0.05008185754152719,-0.03288494457891484,95.94365536540974
3.19,-0.07558682548649162,-0.01377840929205818,95.3714636698892
3.2,-0.05413790365676412,-0.04214467606570152,95.22576671038165
3.21,-0.0808115628552714,-0.020147254387677067,95.31495090983778
3.22,-0.05589094053707839,-0.053717116665422435,95.49508533250166
3.23,-0.06630604200247492,-0.007987741474672851,95.66374060078009
3.24,-0.0628343415140094,-0.053138939387188874,95.7193703489557
3.25,-0.05238486677644986,-0.01377840929205818,95.80943756028765
3.26,-0.04138541968428191,-0.04619191701333643,95.97809282856608
3.27,-0.04949751191475577,-0.01666929568322597,96.13526894245906
3.28,-0.033823299808416446,-0.0548823662569393,96.13526894245906
3.29,-0.06166565026046656,-0.006831386918205734,95.7193703489557
3.3,-0.03963238280396764,-0.027094276761529514,94.75423836870267
3.31,-0.04310408329243315,0.003006521846814503,93.29461973799978
3.32,-0.05296921240322128,-0.05661689809163997,92.08224443252183
3.33,-0.07328381625156896,-0.021303608944144185,91.06059969221738
3.34,-0.06341868714078083,-0.04677898932661973,90.21908937457682
3.35,-0.08603630022405118,-0.02188178622237774,89.92681244368592
3.36,-0.07733986236680589,-0.053138939387188874,90.09546771196436
3.37,-0.07964287160172856,-0.012622054735591063,90.63410495620438
3.38,-0.07558682548649162,-0.05430418897870574,91.37495192000337
3.39,-0.10401352156531317,-0.041566498787467966,92.08224443252183
3.4,-0.07094643374448327,-0.04214467606570152,92.67739443681326
3.41,-0.10518221281885601,-0.02478156764859528,93.16040193287768
3.42,-0.09531708370806788,-0.07571453834344688,93.47475416066366
3.43,-0.10923825893409295,-0.030563340430930862,93.62045112017121
3.44,-0.09184538321960237,-0.057195075369873526,93.58689666889069
3.45,-0.11095692254224418,-0.04619191701333643,93.36172864056084
3.46,-0.0924297288463738,-0.06066413903927488,92.9016794532673
3.47,-0.1080695676805501,-0.02535974492682884,92.27297499769534
3.48,-0.07850855362034874,-0.06818933869136089,91.51005273700127
3.49,-0.12140639727980373,-0.0334631218571484,90.80276022448281
3.5,-0.07850855362034874,-0.06298574318725886,90.23056852896227
3.51,-0.12199074290657516,-0.031141517709164422,89.76963632979293
3.52,-0.06630604200247492,-0.04330103062216864,89.32106629688485
3.53,-0.06458737839432367,0.004162876403281619,88.8045043495399
3.54,-0.02859856243963667,-0.022459963500611302,88.18727904835339
3.55,-0.0321046362002652,0.027325547672822935,87.54709543839597
3.56,-0.04021672843073906,-0.020147254387677067,86.95282844598034
3.57,-0.06689038762924635,0.02326941169013828,86.40271204735487
3.58,-0.06108130463369514,-0.04735716660485329,85.89762925439537
3.59,-0.1138786506761013,-0.03519765369184907,85.45965536399693
3.6,-0.123159434160118,-0.09829903233475465,85.12234482744006
3.61,-0.13068718076382044,-0.06008596176104132,84.81947175403953
3.62,-0.12893414388350619,-0.07861431976966442,84.4936403718681
3.63,-0.23741619083001256,-0.021303608944144185,84.14573369280158
3.64,-0.06572169637570349,-0.05661689809163997,83.82078532250597
3.65,0.5496286218867672,0.24903429628776816,83.5399875460005
3.66,1.2183262585462524,0.26813193653957507,83.31570252954647
3.67,0.9683638233767358,0.06320811906350253,83.12408895249715
3.68,-0.14343966473630265,0.07421127742003963,82.86624948476258
3.69,-0.25480906654450314,0.06552972321148652,82.58545170825712
3.7,-0.21479857774674221,0.025582120803072515,82.339091394908
3.71,-0.14808005647831102,0.008797189664199833,82.20399057791009
3.72,-0.09184538321960237,-0.049669875717787526,82.08036891529763
3.73,-0.10982260456086436,-0.040988321509234406,81.93467195579008
3.74,-0.08603630022405118,-0.07745796521319731,81.79957113879216
3.75,-0.09531708370806788,-0.03461947641361552,81.68742863056514
3.76,-0.07036208811771184,-0.07051094283934486,81.58676527672357
3.77,-0.07094643374448327,-0.027094276761529514,81.42958916283057
3.78,-0.0477444750344415,-0.05546054353517285,81.14879138632512
3.79,-0.058778295398772475,-0.011465700179123947,80.83443915853914
3.8,-0.03674502794227356,-0.02767245403976307,80.49801163385807
3.81,-0.04080107405751048,-0.0027841459705708264,80.08211304035471
3.82,-0.0013405576143579688,-0.0010407191008204048,79.62206385306118
3.83,0.00037810599379327326,0.030216434063990726,79.34126607655573
3.84,0.05317545203619943,0.003006521846814503,79.64502216183206
3.85,0.06245623552021613,0.06495154593325296,81.64239502489917
3.86,0.11174750780199376,0.06842060960265431,87.18770960494402
3.87,0.13666813012018678,0.13730376102789546,96.58383897536716
3.88,0.19988057762798944,0.11299363023693677,106.37202561864696
3.89,0.21844214459602285,0.17493865432337521,113.5120596463926
3.9,0.2631273984079551,0.16220096413213744,117.54212584755895
3.91,0.26543040764287784,0.1946144718534157,119.1244831289985
3.92,0.2851606658644541,0.1506196284973668,118.69798839298551
3.93,0.2497561955365385,0.17840771799277658,116.48692665597399
3.94,0.21730782661464304,0.1141499847934039,112.43390214603674
3.95,0.11985960003246762,0.09215256311537944,107.13583089121683
3.96,0.0769273831008496,0.011688076055367622,102.54416913703956
3.97,0.027636110819071972,0.03310732045515852,99.15428654583062
3.98,0.009074543851038558,-0.02478156764859528,96.88671204876769
3.99,-0.019352152227782984,-0.007987741474672851,95.5065644868871
4.0,-0.013543069232231787,-0.04619191701333643,94.79927197436864
4.01,-0.03557633668873071,-0.02188178622237774,94.63061670609021
4.02,0.003299834127650385,-0.04272285334393508,94.74275921431723
4.03,-0.014711760485774631,-0.028828808596230188,94.87786003131514
4.04,0.006771534616115894,-0.049669875717787526,94.8663808769297
4.05,0.008490198224267135,-0.014356586570291738,94.83282642564917
4.06,0.03227650256108033,-0.04330103062216864,94.88845617382478
4.07,0.012546244339504067,-0.02825063131799663,95.04563228771777
4.08,0.04678202341387681,-0.03404129913538196,95.16925395033023
4.09,0.01718663608151242,-0.006253209639972176,95.10214504776918
4.1,0.04155728604509703,-0.0334631218571484,94.67565031175617
4.11,0.024748755957377886,-0.0027841459705708264,93.75466892529332
4.12,0.05083806952911374,-0.020725431665910624,92.77805779065484
4.13,0.02997349332615766,0.00011563545564671165,91.61071609084286
4.14,0.04097294041832561,-0.048513521161320405,90.37626548846981
4.15,0.024748755957377886,-0.002197073657287521,89.62393937028538
4.16,0.04502898653356254,-0.028828808596230188,89.6018640733903
4.17,0.03519823069493744,0.0024283445685809447,90.20761022019138
4.18,0.03925427681017437,-0.048513521161320405,91.15066690354932
4.19,0.014299281219818334,-0.013200232013824621,91.94802662739973
4.2,0.04389466855218272,-0.03519765369184907,92.40807581469325
4.21,0.018355327335055266,-0.006253209639972176,92.80101609942572
4.22,0.03925427681017437,-0.04677898932661973,93.18247722977276
4.23,0.022995719077063617,-0.016091118404992413,93.59749281140033
4.24,0.0375012399298601,-0.05082623027425464,93.7776272340642
4.25,0.013130589966275488,-0.00509685508350506,93.56393836011979
4.26,0.03633254867631726,-0.043879207900402194,93.03678027026521
4.27,0.01199627198489567,-0.02825063131799663,92.44163026597379
4.28,0.042141631671868456,-0.04793534388308685,91.84648026168234
4.29,0.024164410330606463,-0.031719694987397976,91.22925496049582
4.3,0.03691689430308868,-0.045035562456869314,90.58907135053842
4.31,0.017770981708283843,-0.03461947641361552,89.9718460493519
4.32,0.039804249164782764,-0.048513521161320405,89.44468795949732
4.33,0.042725977298639875,-0.0027841459705708264,88.97315961781834
4.34,0.08156777484285795,-0.025937922205062396,88.41156406480742
4.35,0.08854554909195199,0.01863509842922007,87.74930515795494
4.36,0.1285560378897129,0.014587857481585162,87.10912154799753
4.37,0.12680300100939865,0.040632520107244524,86.48130010430137
4.38,0.11174750780199376,0.00011563545564671165,85.98681345385151
4.39,0.07115267337746142,0.014009680203351603,85.61683147788992
4.4,0.08737685783840915,-0.03866671736125042,85.2689247988234
4.41,0.04908503264879947,-0.027094276761529514,84.88658065660057
4.42,0.04736636904064823,-0.07282365195227909,84.47156507497301
4.43,0.03519823069493744,-0.031141517709164422,84.16869200157247
4.44,0.03925427681017437,-0.06818933869136089,83.94440698511843
4.45,-0.06572169637570349,-0.012622054735591063,83.75279340806911
4.46,0.052006760782656584,-0.0624075659090253,83.52850839161506
4.47,0.5797739815737399,0.22240256134882547,83.24771061510961
4.48,1.178900115375263,0.3132831344520911,82.93335838732362
4.49,1.3986828175856438,0.10662478514131789,82.59693086264257
4.5,0.1343651208852641,0.10142118963721586,82.29405778924202
4.51,-0.03904803717719622,0.09678687637629764,82.15895697224411
4.52,-0.021070815835934228,0.04411047881169562,82.04681446401709
4.53,0.03691689430308868,0.03485074732490894,81.85608389884358
4.54,0.08098342921608652,-0.04214467606570152,81.64239502489917
4.55,0.06417489912836738,-0.028828808596230188,81.42958916283057
4.56,0.09318594083396034,-0.06298574318725886,81.29448834583266
4.57,0.08043345686147813,-0.02767245403976307,81.18234583760564
4.58,0.10305106994474847,-0.048513521161320405,81.00309442681757
4.59,0.1012980330644342,-0.009144096031139966,80.8229600041537
4.6,0.11985960003246762,-0.04214467606570152,80.56512053641913
4.61,0.10305106994474847,-0.023616318057078416,80.1836594060721
4.62,0.14013983060865226,-0.0334631218571484,79.77923996695417
4.63,0.14828629611128916,0.013431502925118044,79.34126607655573
4.64,0.18595940240196437,-0.0033623232488043846,78.95980494620869
4.65,0.16973521794101668,0.03310732045515852,78.78055353542061
4.66,0.21672348098787161,0.01863509842922007,79.2291235683287
4.67,0.23470070232913362,0.07305492286357251,81.71038693933603
4.68,0.2828232833573684,0.07305492286357251,88.19875820273883
4.69,0.30660958769418156,0.12341861131524032,98.1105665086311
4.7,0.36576598908674735,0.11704976621962143,107.50581286717842
4.71,0.3912709570317118,0.18998905362754723,113.97210883368614
4.72,0.4434839574473465,0.1917235854622479,117.339916128
4.73,0.4434839574473465,0.2119864753055717,118.4065944739704
4.74,0.4678546074109311,0.18246385397546122,117.58627644134913
4.75,0.4226193812443904,0.19287994001871503,115.162408842269
4.76,0.393023993912026,0.13152198824555988,110.96368737282423
4.77,0.3124186706897328,0.11820612077608854,106.00204364268536
4.78,0.2689021081313433,0.04700136520286341,101.89338938457252
4.79,0.2045209693699978,0.048157719759330524,98.829338175535
4.8,0.1796003470518048,-0.01956907710944351,96.75249424364559
4.81,0.14594891360420348,-0.012043877457357506,95.42797642994061
4.82,0.15756707959530586,-0.032306767300681286,94.75423836870267
4.83,0.14247721311573797,-0.006253209639972176,94.45136529530214
4.84,0.15987008883022852,-0.04330103062216864,94.4398861409167
4.85,0.14247721311573797,-0.020147254387677067,94.55202864914371
4.86,0.15815142522207729,-0.05082623027425464,94.70920476303671
4.87,0.14828629611128916,-0.02535974492682884,94.80986811687828
4.88,0.17667861891794767,-0.050248052996021086,94.95644808826164
4.89,0.15815142522207729,-0.017834545274742833,95.12422034466427
4.9,0.1830720475402703,-0.04272285334393508,95.19221225910113
4.91,0.17203822717593933,-0.010887522900890389,95.09066589338374
4.92,0.18595940240196437,-0.031719694987397976,94.4169278321458
4.93,0.16856652668747382,-0.01666929568322597,93.39616610371716
4.94,0.1761286465633393,-0.025937922205062396,92.3409669121322
4.95,0.1587013975766857,-0.001618896379053963,91.05000354970775
4.96,0.174375609683025,-0.025937922205062396,89.79259463856381
4.97,0.15292668785329752,-0.013200232013824621,88.8274626583108
4.98,0.16451048057223688,-0.039831966952767285,88.4565976704734
4.99,0.1430615587425094,-0.007987741474672851,88.67028654441779
5.0,0.15522969708822018,-0.04561373973510287,89.24247823993835
5.01,0.13494946651203552,-0.020147254387677067,89.88266184989575
5.02,0.1523423422265261,-0.05082623027425464,90.40981993975034
5.03,0.13842116700050103,-0.007409564196439292,90.84779383014879
5.04,0.1430615587425094,-0.041566498787467966,91.24073411488126
5.05,0.12625302865479024,-0.022459963500611302,91.61071609084286
5.06,0.13900551262727245,-0.050248052996021086,91.85795941606779
5.07,0.12274695489416171,-0.012622054735591063,91.89151386734831
5.08,0.14013983060865226,-0.05546054353517285,91.65574969650882
5.09,0.11810656315215336,-0.028828808596230188,91.1727422004444
5.1,0.12797169226294147,-0.0624075659090253,90.57847520802878
5.11,0.12216260926739028,-0.026516099483295953,90.0283588094033
5.12,0.13030907477002718,-0.05661689809163997,89.47824241077784
5.13,0.10710711605998541,-0.029406985874463745,88.89457156087184
5.14,0.12391564614770455,-0.0548823662569393,88.33297600786094
5.15,0.11580355391723068,-0.024194495335311976,87.7943387636209
5.16,0.11985960003246762,-0.06008596176104132,87.21066791371491
5.17,0.10710711605998541,-0.009144096031139966,86.60403875503803
5.18,0.13319642963172126,-0.03693218552654975,86.02036790513203
5.19,0.16103878008377137,0.02384758896837184,85.41462175833095
5.2,0.19293717665105842,0.005906303273032041,84.86450535970549
5.21,0.1772629645447191,0.05279203302024874,84.39297701802651
5.22,0.17148825482133093,-0.004518677805271501,84.03359118457456
5.23,0.14478022235066063,0.012853325646884487,83.68568450550805
5.24,0.14189286748896654,-0.03461947641361552,83.29274422077557
5.25,0.09841067820274012,-0.03288494457891484,82.91128309042854
5.26,0.09435463208750319,-0.08498316486528332,82.55189725697659
5.27,0.08971424034549483,-0.03461947641361552,82.20399057791009
5.28,0.10418538792612829,-0.06414209774372598,81.91259665889498
5.29,-0.02976725369317951,-0.022459963500611302,81.66535333367005
5.3,0.0769273831008496,-0.05546054353517285,81.47462276849654
5.31,0.5965825116614591,0.2345620742618297,81.27241304893758
5.32,1.1800344333566428,0.3283335337562631,80.9580608211516
5.33,1.3986828175856438,0.07652398653297386,80.56512053641913
5.34,0.17843165579826195,0.06147358722880186,80.17218025168664
5.35,0.004434152109030204,0.04237594697699494,79.85782802390067
5.36,0.0061871889893444715,0.054526564854949416,79.6785766131126
5.37,0.02997349332615766,0.021534879855437606,79.53199664172924
5.38,0.09665764132242585,-0.031141517709164422,79.34126607655573
5.39,0.08854554909195199,-0.023616318057078416,78.98188024310377
5.4,0.1012980330644342,-0.06356392046549242,78.65693187280814
5.41,0.08273646609640078,-0.022459963500611302,78.4547221532492
5.42,0.10593842480644255,-0.04735716660485329,78.38761325068813
5.43,0.09318594083396034,-0.02303814077884486,78.35405879940761
5.44,0.11288182578337358,-0.043879207900402194,78.19688268551462
5.45,0.09607329569565443,-0.018412722552976393,77.83749685206267
5.46,0.12914038351648433,-0.024194495335311976,77.30945575033228
5.47,0.11638789954400211,0.0012719900121138281,76.77081850609225
5.48,0.15117365097298324,-0.005675032361738617,76.40083653013066
5.49,0.15464535146144875,0.048735897037564084,76.31076931879873
5.5,0.18771243928227865,0.003006521846814503,76.88296101431928
5.51,0.20510531499676923,0.0823146543503592,79.36422438532661
5.52,0.23992543969791338,0.09389598998512985,85.66186508355588
5.53,0.26659909889642064,0.14193807428881366,95.60722784072868
5.54,0.3228337721551293,0.14367260612351435,105.11549971937883
5.55,0.35184481386072225,0.19287994001871503,111.56943351962529
5.56,0.3837432104280093,0.1882456267577968,114.93724081393916
5.57,0.386080592935095,0.21892460264437438,116.08250721685607
5.58,0.4121699065068309,0.20908669387935414,115.36373554995217
5.59,0.37679980945107827,0.20619580748818636,113.0626066016087
5.6,0.3303958920309948,0.14367260612351435,109.10053231487922
5.61,0.2584870066659468,0.12283153900195701,104.12740943035492
5.62,0.20393662374322638,0.05105750118554806,99.78299100140258
5.63,0.1378368213737296,0.054526564854949416,96.44873815836925
5.64,0.11116316217522233,-0.010887522900890389,94.03546670179877
5.65,0.06939963649714716,-0.00509685508350506,92.31800860336132
5.66,0.07228699135884124,-0.039831966952767285,91.1727422004444
5.67,0.05083806952911374,-0.02767245403976307,90.55551689925788
5.68,0.07170264573206982,-0.029985163152697305,90.38774464285525
5.69,0.056647152524664936,-0.011465700179123947,90.48840799669684
5.7,0.05142241515588516,-0.04677898932661973,90.70209687064124
5.71,0.05489411564435067,-0.001618896379053963,90.91490273270983
5.72,0.05953450738635902,-0.04677898932661973,90.91490273270983
5.73,0.05142241515588516,-0.01377840929205818,90.64558411058982
5.74,0.06764659961683289,-0.02825063131799663,90.6906177162558
5.75,0.07228699135884124,0.0006938127338802698,90.94845718399037
5.76,0.04444464090679112,-0.032306767300681286,91.02704524093686
5.77,0.05142241515588516,-0.018412722552976393,90.54492075674824
5.78,0.06359055350159595,-0.018412722552976393,89.3095871424994
5.79,0.039804249164782764,-0.012043877457357506,87.69367540977933
5.8,0.03402953944139459,-0.030563340430930862,86.28968652725204
5.81,0.01952401858859811,-0.006831386918205734,85.48173066089201
5.82,0.028220456445843395,-0.022459963500611302,85.38106730705043
5.83,-0.00426228574821508,-0.013200232013824621,85.80756204306344
5.84,0.00965888947780998,-0.03925378967453373,86.44686264114503
5.85,0.0009624516205646956,-0.013200232013824621,87.01993734854139
5.86,0.00965888947780998,-0.040988321509234406,87.50206183273
5.87,-0.017014769720697296,-0.03866671736125042,87.96299403189934
5.88,-0.0030935944946722358,-0.048513521161320405,88.44511851608796
5.89,-0.024542516324399737,-0.017256367996509276,88.92812601215236
5.9,-0.012958723605460364,-0.05198258483072176,89.24247823993835
5.91,-0.03787934592365337,-0.03693218552654975,89.25395739432379
5.92,-0.03616068231550213,-0.05082623027425464,88.95020130904746
5.93,-0.04021672843073906,-0.03808854008301687,88.46807682485884
5.94,-0.03323895418164502,-0.06356392046549242,87.91796042623336
5.95,-0.05238486677644986,-0.03808854008301687,87.3678440276079
5.96,-0.0384636915504248,-0.057773252648107086,86.83980292587752
5.97,-0.04251973766566173,-0.03519765369184907,86.33472013291802
5.98,-0.030351599319950934,-0.0624075659090253,85.79608288867799
5.99,-0.06400303276755226,-0.03866671736125042,85.23448733566708
6.0,-0.058193949772001055,-0.043879207900402194,84.69585009142706
6.01,-0.033823299808416446,-0.022459963500611302,84.19076729846756
6.02,0.018939672961826685,0.00011563545564671165,83.6971636598935
6.03,0.0056028433625730486,0.026738475359539632,83.16912255816311
6.04,0.027636110819071972,0.01516603475981872,82.59693086264257
6.05,-0.024542516324399737,0.003584699125048061,82.04681446401709
6.06,-0.021070815835934228,0.0012719900121138281,81.58676527672357
6.07,-0.046610157053061686,-0.02188178622237774,81.1938249919911
6.08,-0.06630604200247492,-0.040988321509234406,80.86799360981966
6.09,-0.08892365508574526,-0.050248052996021086,80.58719583331421
6.1,-0.08314894536235709,-0.07398000650874621,80.28432275991366
6.11,-0.0924297288463738,-0.05198258483072176,79.95849137774225
6.12,-0.17011332393480993,-0.0334631218571484,79.5999885561661
6.13,-0.13996796424783714,-0.0548823662569393,79.25208187709958
6.14,0.3303958920309948,0.10142118963721586,78.92625049492815
6.15,0.8906458550161367,0.31270495717385755,78.66841102719359
6.16,1.439312025282339,0.08347100890682631,78.44324299886375
6.17,0.10476973355289972,0.06262994178526897,78.15184907984865
6.18,-0.2176859326084363,0.02384758896837184,77.83749685206267
6.19,-0.23913485443816382,0.07594580925474032,77.53462377866212
6.2,-0.14519270161661693,0.011688076055367622,77.30945575033228
6.21,-0.11559731428425253,-0.011465700179123947,77.16375879082473
6.22,-0.08833930945897384,-0.03808854008301687,77.04013712821227
6.23,-0.10284483031177032,-0.03751036280478331,76.96154907126578
6.24,-0.08950800071251669,-0.05950778448280776,76.9165154655998
6.25,-0.08545195459727975,-0.04330103062216864,76.82733126614367
6.26,-0.0715307793712547,-0.053717116665422435,76.72578490042629
6.27,-0.06805907888278918,-0.022459963500611302,76.60216323781383
6.28,-0.06458737839432367,-0.040988321509234406,76.34432377007926
6.29,-0.05472224928353554,0.003006521846814503,75.96286263973222
6.3,-0.04196976531105333,-0.013200232013824621,75.50281345243869
6.31,-0.03557633668873071,0.004162876403281619,75.04188125326935
6.32,-0.006565294983137744,0.008797189664199833,74.68337843169321
6.33,-0.012374377978688943,0.028481902229290052,74.69397457420285
6.34,0.030557838952929083,0.05105750118554806,75.73857762327818
6.35,0.06128754426667329,0.07594580925474032,79.45340858478275
6.36,0.11869090877892477,0.10142118963721586,87.55857459278141
6.37,0.1465332592309749,0.14715056482796543,97.81828957774019
6.38,0.1796003470518048,0.14830691938443255,106.25988311041993
6.39,0.2045209693699978,0.17782954071454302,111.48024932016916
6.4,0.23992543969791338,0.17840771799277658,113.83700801668823
6.41,0.23700371156405628,0.18129860438394438,114.17431855324509
6.42,0.23700371156405628,0.17725136343630946,112.74825437382273
6.43,0.18365639316704171,0.15872300542768636,109.80782482739768
6.44,0.12333130052093312,0.092730740393613,105.22764222760586
6.45,0.05489411564435067,0.06957696415912142,100.43377075386962
6.46,0.0056028433625730486,0.028481902229290052,96.57235982098172
6.47,-0.034991991061959285,0.0018501672903473863,93.69903917711771
6.48,-0.05994698665231532,-0.02825063131799663,91.67870800527972
6.49,-0.08603630022405118,-0.02535974492682884,90.29767743152331
6.5,-0.07558682548649162,-0.04272285334393508,89.37669604506046
6.51,-0.07269947062479754,-0.02535974492682884,88.81598350392535
6.52,-0.0808115628552714,-0.05661689809163997,88.70384099569833
6.53,-0.06747473325601776,-0.03288494457891484,88.79302519515446
6.54,-0.06108130463369514,-0.03925378967453373,88.92812601215236
6.55,-0.06224999588723799,-0.04214467606570152,88.99523491471342
6.56,-0.046610157053061686,-0.02535974492682884,89.07382297165992
6.57,-0.0628343415140094,-0.022459963500611302,89.14093187422097
6.58,-0.05008185754152719,-0.03288494457891484,89.20892378865783
6.59,-0.04196976531105333,-0.007987741474672851,89.11885657732589
6.6,-0.04251973766566173,-0.01956907710944351,88.65880739003235
6.61,-0.048913166287984346,-0.03404129913538196,87.63716264972791
6.62,-0.053553558029992704,-0.02535974492682884,85.82963733995852
6.63,-0.05589094053707839,-0.017834545274742833,84.13513755029194
6.64,-0.046610157053061686,-0.029406985874463745,83.41636588338804
6.65,-0.07036208811771184,-0.032306767300681286,83.58502115166648
6.66,-0.0593626410255439,-0.031141517709164422,84.40445617241195
6.67,-0.06572169637570349,-0.02535974492682884,85.3475128557699
6.68,-0.06224999588723799,-0.028828808596230188,86.04332621390292
6.69,-0.07094643374448327,-0.036354008248316194,86.51485455558189
6.7,-0.07094643374448327,-0.039831966952767285,86.9413492915949
6.71,-0.07675551674003447,-0.043879207900402194,87.4234737757835
6.72,-0.07558682548649162,-0.044457385178635754,87.91796042623336
6.73,-0.07094643374448327,-0.03866671736125042,88.27734625968532
6.74,-0.07964287160172856,-0.052560762108955314,88.35593431663182
6.75,-0.06977774249094043,-0.022459963500611302,88.09721183702145
6.76,-0.07386816187834039,-0.04272285334393508,87.62568349534247
6.77,-0.07269947062479754,-0.04619191701333643,87.01993734854139
6.78,-0.06572169637570349,-0.04330103062216864,86.45834179553049
6.79,-0.0750024798597202,-0.03925378967453373,85.87467094562449
6.8,-0.06689038762924635,-0.0334631218571484,85.22389119315744
6.81,-0.07441813423294878,-0.03925378967453373,84.58370758320004
6.82,-0.0628343415140094,-0.031141517709164422,84.09010394462598
6.83,-0.014711760485774631,-0.0010407191008204048,83.65213005422753
6.84,0.013714935593046911,0.019791452985687186,83.15852641565347
6.85,0.021277055468912377,0.036007101881376055,82.56337641136204
6.86,-0.0007905852597495714,0.003584699125048061,81.95674725268516
6.87,-0.015261732840383029,0.012266253333601181,81.39603471155004
6.88,-0.016430424093925873,-0.003940500527037943,80.96953997553705
6.89,-0.0477444750344415,-0.0334631218571484,80.70022135341704
6.9,-0.05530659491030697,-0.032306767300681286,80.39646526814069
6.91,-0.08545195459727975,-0.07051094283934486,80.07151689784507
6.92,-0.07617117111326305,-0.0624075659090253,79.76776081256872
6.93,-0.10054182107684766,-0.05082623027425464,79.45340858478275
6.94,-0.1596982224694134,-0.06008596176104132,79.16201466576764
6.95,0.13842116700050103,0.05510474213318297,78.91477134054271
6.96,0.7549401765165146,0.3092358935044562,78.67900716970323
6.97,1.5048274820250644,0.23050593827914503,78.37613409630269
6.98,0.49624693021758964,0.06610790048972007,78.09533631979724
6.99,-0.13244021764413472,0.05858270083763407,77.7924632463967
7.0,-0.159113876842642,0.10546843058485077,77.5001863155058
7.01,-0.11851904241810965,0.056848169002933394,77.23086769338579
7.02,-0.06922777013633202,-0.001618896379053963,76.9951035225463
7.03,-0.04949751191475577,-0.032306767300681286,76.83792740865331
7.04,-0.03557633668873071,-0.031719694987397976,76.70370960353121
7.05,-0.05008185754152719,-0.04561373973510287,76.54653348963821
7.06,-0.030935944946722357,-0.06008596176104132,76.32224847318417
7.07,-0.01876780660101156,-0.040988321509234406,76.05204683918835
7.08,-0.016430424093925873,-0.02825063131799663,75.74917376578782
7.09,-0.006565294983137744,-0.023616318057078416,75.4242253954922
7.1,-0.007149640609909167,-0.01899089983120995,75.09839401332077
7.11,0.01952401858859811,-0.017256367996509276,74.75048733425426
7.12,0.030557838952929083,0.0018501672903473863,74.3345887407509
7.13,0.052591106409428004,0.01921327570745363,73.91957315912333
7.14,0.06764659961683289,0.04700136520286341,73.86306039907193
7.15,0.095488950068883,0.02326941169013828,74.91825959065689
7.16,0.12333130052093312,0.07825851836767454,78.81410798670115
7.17,0.16103878008377137,0.09447416726336341,87.1541551536635
7.18,0.19352152227782984,0.13094381096732632,97.27965233350017
7.19,0.2404754120525218,0.15294123264535078,105.35126389021832
7.2,0.2723738086198088,0.18129860438394438,110.20076511213016
7.21,0.30660958769418156,0.18766744947956326,112.37827239786114
7.22,0.31819338041312095,0.20271784878373525,112.69262462564713
7.23,0.3130030163165042,0.1882456267577968,111.31159405189074
7.24,0.26601475326964924,0.15756665087121924,108.6175248188148
7.25,0.22600426447188832,0.11704976621962143,104.45324081252635
7.26,0.16392613494546546,0.09041803128067875,100.12030153795945
7.27,0.10535407917967113,0.04411047881169562,96.52732621531574
7.28,0.06881529087037573,0.011688076055367622,93.79970253095928
7.29,0.04853506029419107,-0.013200232013824621,91.73433775345532
7.3,0.021827027823520775,-0.018412722552976393,90.27471912275243
7.31,0.024164410330606463,-0.040410144231000845,89.42172965072642
7.32,0.026467419565529126,-0.021303608944144185,88.97315961781834
7.33,0.024748755957377886,-0.04735716660485329,88.8830924064864
7.34,0.02997349332615766,-0.031719694987397976,88.93960516653782
7.35,0.038085585556631524,-0.04735716660485329,89.02878936599394
7.36,0.03925427681017437,-0.0334631218571484,89.04026852037939
7.37,0.052006760782656584,-0.03751036280478331,89.0967812804308
7.38,0.04795071466741965,-0.017256367996509276,89.26455353683343
7.39,0.06011885301313045,-0.027094276761529514,89.48972156516328
7.4,0.05317545203619943,-0.024194495335311976,89.48972156516328
7.41,0.06764659961683289,-0.030563340430930862,89.1753693373773
7.42,0.06245623552021613,-0.01666929568322597,88.3780096135269
7.43,0.06764659961683289,-0.001618896379053963,87.23274321061
7.44,0.04853506029419107,-0.014356586570291738,85.87467094562449
7.45,0.05489411564435067,-0.022459963500611302,84.72940454270758
7.46,0.03519823069493744,-0.016091118404992413,84.1236583959065
7.47,0.04155728604509703,-0.03693218552654975,84.11217924152106
7.48,0.03519823069493744,-0.020725431665910624,84.52807783502442
7.49,0.02591744721092073,-0.04561373973510287,85.12234482744006
7.5,0.015467972473361178,-0.032306767300681286,85.68394038045098
7.51,0.02705176519230055,-0.031719694987397976,86.06540151079801
7.52,0.020692709842140954,-0.036354008248316194,86.41330818986451
7.53,0.020692709842140954,-0.06356392046549242,86.83980292587752
7.54,0.018939672961826685,-0.026516099483295953,87.27777681627596
7.55,0.021827027823520775,-0.06529845230019309,87.50206183273
7.56,0.014299281219818334,-0.03288494457891484,87.46850738144948
7.57,0.02010836421536953,-0.03288494457891484,87.19918875932947
7.58,0.015467972473361178,-0.032306767300681286,86.69410596636997
7.59,0.022995719077063617,-0.050248052996021086,86.03184705951747
7.6,0.00965888947780998,-0.03751036280478331,85.3475128557699
7.61,0.013714935593046911,-0.04735716660485329,84.7638420058639
7.62,-0.012374377978688943,-0.04272285334393508,84.30290980669457
7.63,0.0061871889893444715,-0.04272285334393508,83.83138146501561
7.64,0.04038859479155419,0.00011563545564671165,83.25918976949505
7.65,0.07056832775069,0.005328125994798483,82.65344362269397
7.66,0.07579306511946977,0.03252914317692496,82.09184806968307
7.67,0.08796120346518056,0.02326941169013828,81.53025251667215
7.68,0.06245623552021613,0.020378525298970492,80.98013611804669
7.69,0.05547846127112209,-0.00509685508350506,80.44149887380667
7.7,0.02997349332615766,-0.025937922205062396,79.99292884089857
7.71,-0.0030935944946722358,-0.0514044075524882,79.61058469867574
7.72,-0.02976725369317951,-0.05198258483072176,79.29623247088975
7.73,-0.009487023116994855,-0.07224547467404553,78.97128410059413
7.74,-0.026879898831485425,-0.058351429926340646,78.5898229702471
7.75,-0.13996796424783714,-0.03519765369184907,78.19688268551462
7.76,-0.022823852716248493,-0.01956907710944351,77.83749685206267
7.77,0.5641341427395636,0.23166229283561215,77.5001863155058
7.78,1.1655632857760092,0.32370811553039464,77.17523794521017
7.79,1.1765627328681774,0.037163456437843176,76.84940656303876
7.8,-0.009487023116994855,0.09389598998512985,76.51297903835768
7.81,-0.11559731428425253,0.027325547672822935,76.18714765618627
7.82,-0.12432812541366085,0.07305492286357251,75.87279542840028
7.83,-0.06053133227908675,-0.014356586570291738,75.60347680628027
7.84,-0.03557633668873071,-0.025937922205062396,75.4242253954922
7.85,-0.012958723605460364,-0.031719694987397976,75.27764542410884
7.86,-0.027464244458256848,-0.02478156764859528,75.10987316770621
7.87,-0.024542516324399737,-0.04677898932661973,74.86262984248128
7.88,-0.02165516146270565,-0.02767245403976307,74.6268656716418
7.89,-0.0054309770017579246,-0.05082623027425464,74.36902620390723
7.9,-0.023408198343019916,-0.02767245403976307,74.1217828786823
7.91,-0.0048466313749865025,-0.03925378967453373,73.89749786222825
7.92,-0.007733986236680589,-0.001618896379053963,73.62817924010824
7.93,0.020692709842140954,-0.0033623232488043846,73.27938954916593
7.94,0.03110781130753748,0.013431502925118044,72.87585312192381
7.95,0.04736636904064823,0.003006521846814503,72.64008895108432
7.96,0.05547846127112209,0.053948387576715856,73.04362537832644
7.97,0.095488950068883,0.05973905539410119,75.3456373385457
7.98,0.1105788165484509,0.10604660786308433,81.65387417928461
7.99,0.15698273396853443,0.09678687637629764,91.71226245656024
8.0,0.1952401858859811,0.16046643229743676,101.33179383156161
8.01,0.23294766544881934,0.17551683160160877,107.87667785501581
8.02,0.2433971401863789,0.2032960260619688,111.21093069804915
8.03,0.26948645375811475,0.18246385397546122,112.26612988963412
8.04,0.2689021081313433,0.1946144718534157,111.56943351962529
8.05,0.260205670274098,0.14946327394089967,109.29126288005273
8.06,0.19293717665105842,0.155253941758285,105.39541448400848
8.07,0.1378368213737296,0.09157438583714587,100.68101407909455
8.08,0.07056832775069,0.07652398653297386,96.62887258103312
8.09,0.028220456445843395,0.015744212038052277,93.50830861194419
8.1,-0.02399254396979134,0.0076408351077327154,91.22925496049582
8.11,-0.03787934592365337,-0.014934763848525297,89.55683046772434
8.12,-0.05472224928353554,-0.02188178622237774,88.34445516224638
8.13,-0.058193949772001055,-0.04619191701333643,87.59212904406195
8.14,-0.058778295398772475,-0.01666929568322597,87.26629766189052
8.15,-0.04602581142629026,-0.06008596176104132,87.19918875932947
8.16,-0.0593626410255439,-0.031141517709164422,87.2892559706614
8.17,-0.034407645435187866,-0.03404129913538196,87.35636487322246
8.18,-0.06224999588723799,-0.01956907710944351,87.41287763327387
8.19,-0.04544146579951884,-0.03519765369184907,87.41287763327387
8.2,-0.06108130463369514,-0.007409564196439292,87.4464320845544
8.21,-0.05066620316829861,-0.03288494457891484,87.55857459278141
8.22,-0.06053133227908675,-0.009731168344423273,87.2892559706614
8.23,-0.05644091289168679,-0.04272285334393508,86.36827458419855
8.24,-0.07269947062479754,-0.015512941126758854,85.20093288438656
8.25,-0.04716012940767008,-0.023616318057078416,84.03359118457456
8.26,-0.0628343415140094,0.0012719900121138281,82.9783919929896
8.27,-0.06747473325601776,-0.03404129913538196,82.28257863485658
8.28,-0.09473273808129647,-0.01956907710944351,82.06888976091217
8.29,-0.08778933710436544,-0.04330103062216864,82.339091394908
8.3,-0.09531708370806788,-0.006831386918205734,82.88920779353346
8.31,-0.09414839245452504,-0.044457385178635754,83.49495394033454
8.32,-0.11446299630287272,-0.03461947641361552,84.09010394462598
8.33,-0.10284483031177032,-0.043879207900402194,84.7073292458125
8.34,-0.12374377978688943,-0.035775830970082634,85.3475128557699
8.35,-0.10167613905822748,-0.04793534388308685,85.91970455129045
8.36,-0.1202377060262609,-0.02188178622237774,86.25613207597152
8.37,-0.09995747545007623,-0.04735716660485329,86.34619928730346
8.38,-0.11793469679133822,-0.017834545274742833,86.20050232779592
8.39,-0.12082205165303231,-0.057773252648107086,85.79608288867799
8.4,-0.12893414388350619,-0.025937922205062396,85.20093288438656
8.41,-0.1202377060262609,-0.052560762108955314,84.58370758320004
8.42,-0.12432812541366085,-0.01030934562265683,83.97796143639896
8.43,-0.07036208811771184,-0.022459963500611302,83.37133227772208
8.44,-0.048913166287984346,0.025003943524838958,82.79914058220152
8.45,-0.04716012940767008,0.005328125994798483,82.27109948047114
8.46,-0.043688428919204575,0.031950965898691404,81.76601668751164
8.47,-0.06805907888278918,-0.021303608944144185,81.23885859765706
8.48,-0.09531708370806788,0.013431502925118044,80.63222943898018
8.49,-0.10865391330732152,-0.049669875717787526,80.04855858907418
8.5,-0.16200123170433608,-0.03808854008301687,79.5214004992196
8.51,-0.1538891394738622,-0.08092702888259866,79.04987215754062
8.52,-0.16083254045079323,-0.05082623027425464,78.71256162098376
8.53,-0.16141688607756466,-0.07513636106521333,78.44324299886375
8.54,-0.26467419565529127,-0.040988321509234406,78.12889077107776
8.55,-0.029182908066408088,-0.007987741474672851,77.7924632463967
8.56,0.6099193412607128,0.28550393999173107,77.43307741294474
8.57,1.3209992224972076,0.21603371625320658,77.10724603077333
8.58,0.633705645597526,0.06957696415912142,76.7822976604777
8.59,-0.24264092819879235,0.053948387576715856,76.50149988397224
8.6,-0.3174371684255344,0.07536763197650675,76.20922295308135
8.61,-0.255977757798046,0.04237594697699494,75.9063498796808
8.62,-0.20029305689394575,0.011688076055367622,75.68206486322676
8.63,-0.17186636081512421,-0.058351429926340646,75.49133429805325
8.64,-0.16375426858465034,-0.009731168344423273,75.28912457849428
8.65,-0.14577704724338836,-0.06761116141312733,75.1319484646013
8.66,-0.15330479384709078,-0.018412722552976393,74.98625150509375
8.67,-0.130102835137049,-0.04619191701333643,74.87410899686672
8.68,-0.14866440210508244,-0.018412722552976393,74.73900817986882
8.69,-0.12893414388350619,-0.04677898932661973,74.51472316341477
8.7,-0.11851904241810965,-0.009144096031139966,74.18889178124334
8.71,-0.0924297288463738,-0.014934763848525297,73.78535535400123
8.72,-0.09703574731621913,0.012853325646884487,73.3244231548319
8.73,-0.08720499147759402,-0.01030934562265683,72.85289481315293
8.74,-0.07792420799357731,0.04237594697699494,72.59505534541836
8.75,-0.04080107405751048,0.03774163371607673,73.04362537832644
8.76,-0.020486470209162805,0.07710216381120742,75.44630069238728
8.77,0.027636110819071972,0.08058012251565852,81.77749584189708
8.78,0.04678202341387681,0.13210016552379344,91.71226245656024
8.79,0.10824143404136523,0.12573132042817456,101.16402157515897
8.8,0.12914038351648433,0.1731952274536248,107.54025033033474
8.81,0.1761286465633393,0.17088251834069057,110.79503210454578
8.82,0.18190335628672746,0.20271784878373525,111.82815599923568
8.83,0.18076903830534763,0.15987935998415348,111.16589709238318
8.84,0.14013983060865226,0.1720388728971577,108.95395234349587
8.85,0.10071368743766278,0.10373389875015009,105.13757501627391
8.86,0.014299281219818334,0.07768034108944098,100.50176266830648
8.87,-0.029182908066408088,0.024425766246605397,96.61739342664768
8.88,-0.08778933710436544,0.008797189664199833,93.56393836011979
8.89,-0.1022604846849989,-0.026516099483295953,91.31932217182776
8.9,-0.13302456327090614,-0.013200232013824621,89.74756103289785
8.91,-0.11504734192964414,-0.03288494457891484,88.71443713820797
8.92,-0.13302456327090614,-0.022459963500611302,88.19875820273883
8.93,-0.123159434160118,-0.05198258483072176,88.03010293446039
8.94,-0.13302456327090614,-0.01899089983120995,88.04158208884583
8.95,-0.10923825893409295,-0.05430418897870574,88.06365738574092
8.96,-0.1202377060262609,-0.039831966952767285,87.96299403189934
8.97,-0.10982260456086436,-0.04330103062216864,87.89500211746248
8.98,-0.10982260456086436,-0.020725431665910624,87.91796042623336
8.99,-0.09126103759283095,-0.045035562456869314,88.03010293446039
9.0,-0.10518221281885601,-0.01956907710944351,88.12017014579233
9.01,-0.0959014293348393,-0.03808854008301687,87.90648127184792
9.02,-0.10054182107684766,-0.01377840929205818,87.26629766189052
9.03,-0.09762009294299055,-0.03925378967453373,86.15546872212994
9.04,-0.12140639727980373,-0.02535974492682884,84.80799259965407
9.05,-0.0959014293348393,-0.057195075369873526,83.64065089984209
9.06,-0.12546244339504067,-0.027094276761529514,82.9783919929896
9.07,-0.10167613905822748,-0.04561373973510287,82.94483754170908
9.08,-0.11968773367165249,-0.02478156764859528,83.4048867290026
9.09,-0.10631653080023583,-0.06877641100464418,84.14573369280158
9.1,-0.11559731428425253,-0.020725431665910624,84.86450535970549
9.11,-0.1138786506761013,-0.06298574318725886,85.42610091271641
9.12,-0.12721548027535493,-0.039831966952767285,85.91970455129045
9.13,-0.11212561379578703,-0.05603872081340641,86.44686264114503
9.14,-0.14172100112815142,-0.049091698439553966,86.91839098282401
9.15,-0.10576655844562743,-0.057773252648107086,87.16563430804894
9.16,-0.13068718076382044,-0.03751036280478331,87.13207985676841
9.17,-0.11618165991102396,-0.0699327655611113,86.80624847459698
9.18,-0.13474322687905738,-0.04214467606570152,86.34619928730346
9.19,-0.11212561379578703,-0.07282365195227909,85.8525956487294
9.2,-0.11676600553779538,-0.018412722552976393,85.30247925010394
9.21,-0.04949751191475577,-0.03866671736125042,84.75236285147847
9.22,-0.05994698665231532,0.0018501672903473863,84.15721284718703
9.23,-0.01179003235191752,-0.020725431665910624,83.56206284289559
9.24,-0.05644091289168679,0.016322389316285837,83.00135030176048
9.25,-0.05008185754152719,-0.02535974492682884,82.49626750880098
9.26,-0.07905852597495713,-0.017256367996509276,81.9682264070706
9.27,-0.08950800071251669,-0.06472027502195954,81.35100110588408
9.28,-0.12779982590212635,-0.04272285334393508,80.76733025597808
9.29,-0.13357453562551452,-0.09887720961298821,80.27284360552822
9.3,-0.14402401036307408,-0.07340182923051265,79.91434078395207
9.31,-0.19682135640548024,-0.06703298413489377,79.64502216183206
9.32,-0.19101227340992905,-0.07224547467404553,79.39777883660713
9.33,0.27646422800720877,0.08173647707212564,79.06046830005026
9.34,0.812343541028766,0.3381803375563331,78.7240407753692
9.35,1.486265915057031,0.1390471878976459,78.43264685635411
9.36,0.18482508442058457,0.09794323093276476,78.15184907984865
9.37,-0.21304554086642796,0.011688076055367622,77.88253045772863
9.38,-0.22521367921213875,0.09563052181983053,77.60173268122318
9.39,-0.14402401036307408,-0.02767245403976307,77.3659685103837
9.4,-0.10690087642700725,-0.007409564196439292,77.17523794521017
9.41,-0.08369891771696548,-0.06818933869136089,76.98450738003666
9.42,-0.09703574731621913,-0.039831966952767285,76.7822976604777
9.43,-0.06922777013633202,-0.06356392046549242,76.5686087865333
9.44,-0.0715307793712547,-0.044457385178635754,76.38935737574522
9.45,-0.058193949772001055,-0.0664548068566602,76.22070210746679
9.46,-0.07792420799357731,-0.025937922205062396,75.9849379366273
9.47,-0.048913166287984346,-0.07340182923051265,75.65998956633167
9.48,-0.05125054879507004,-0.024194495335311976,75.23261181844288
9.49,-0.026879898831485425,-0.04330103062216864,74.71693288297374
9.5,-0.016430424093925873,0.006484480551265599,74.1774126268579
9.51,0.013130589966275488,-0.014934763848525297,73.79595149651087
9.52,0.01199627198489567,0.03485074732490894,73.99816121606983
9.53,0.06998398212391857,0.027903724951056495,75.83924097711976
9.54,0.08971424034549483,0.07652398653297386,81.33952195149864
9.55,0.12914038351648433,0.06378629634173609,90.84779383014879
9.56,0.14828629611128916,0.12225336172372345,100.36666185130858
9.57,0.21149874361909185,0.13035673865404301,107.03516753737524
9.58,0.22249819071125979,0.17493865432337521,110.7164440475993
9.59,0.26659909889642064,0.1517759830538339,112.13102907263621
9.6,0.2584870066659468,0.19519264913164924,111.80519769046478
9.61,0.2631273984079551,0.14078171973234654,109.8413792786782
9.62,0.19352152227782984,0.13499105191496122,106.40646308180328
9.63,0.16684786307932256,0.07536763197650675,102.02849020157042
9.64,0.07462437386592694,0.062051764507035416,98.12204566301654
9.65,0.04561333216033396,-0.003940500527037943,95.09066589338374
9.66,-0.010621341098374676,0.00011563545564671165,92.9016794532673
9.67,-0.005980949356366322,-0.044457385178635754,91.38643107438881
9.68,-0.04080107405751048,-0.02825063131799663,90.5334416023628
9.69,-0.019902124582391382,-0.0699327655611113,90.2411646714719
9.7,-0.034991991061959285,-0.03693218552654975,90.2411646714719
9.71,-0.012958723605460364,-0.05603872081340641,90.29767743152331
9.72,-0.0321046362002652,-0.043879207900402194,90.28619827713787
9.73,0.003299834127650385,-0.06587662957842665,90.2411646714719
9.74,-0.020486470209162805,-0.03693218552654975,90.33123188280385
9.75,0.007355880242887316,-0.06703298413489377,90.54492075674824
9.76,-0.00426228574821508,-0.02478156764859528,90.78068492758773
9.77,0.024748755957377886,-0.06472027502195954,90.92638188709527
9.78,-0.005980949356366322,-0.029985163152697305,90.79128107009737
9.79,0.015467972473361178,-0.06066413903927488,90.20761022019138
9.8,0.0027154885008789623,-0.01899089983120995,89.16389018299185
9.81,0.02010836421536953,-0.06529845230019309,87.80581791800635
9.82,-0.012374377978688943,-0.040988321509234406,86.39123289296943
9.83,0.0038498064822587823,-0.057195075369873526,85.31307539261357
9.84,-0.017014769720697296,-0.041566498787467966,84.75236285147847
9.85,0.010243235104581402,-0.06414209774372598,84.7073292458125
9.86,-0.009487023116994855,-0.01956907710944351,85.12234482744006
9.87,-0.0007905852597495714,-0.08150520616083222,85.69541953483642
9.88,-0.01876780660101156,-0.03751036280478331,86.15546872212994
9.89,-0.0030935944946722358,-0.06298574318725886,86.52545069809153
9.9,-0.01876780660101156,-0.049091698439553966,86.87424038903384
9.91,-0.0019249032411293911,-0.07919249704789798,87.25570151938088
9.92,-0.01876780660101156,-0.03866671736125042,87.67071710100844
9.93,0.007355880242887316,-0.08323973799553289,87.92943958061882
9.94,-0.019352152227782984,-0.03925378967453373,87.89500211746248
9.95,0.0061871889893444715,-0.07051094283934486,87.58064988967651
9.96,-0.011205686725146097,-0.03751036280478331,87.12060070238297
9.97,0.0027154885008789623,-0.0664548068566602,86.59344261252839
9.98,0.008490198224267135,-0.027094276761529514,86.02036790513203
9.99,0.056062806897893516,-0.04330103062216864,85.44817620961149
