time_s,ECG,NIBP
0.0,-0.006565326005913263,97.16640408032471
0.01,-0.052775120585995074,97.19728022858364
0.02,-0.08711682584769521,97.13636242255929
0.03,-0.1066444621729757,97.19728022858364
0.04,-0.10925375840609507,97.16640408032471
0.05,-0.10942210009855438,97.44178594317454
0.06,-0.10954835636789886,97.53274540696432
0.07,-0.10054207582132554,95.94637897885067
0.08,-0.08699056957835073,85.41761242255929
0.09,-0.08438127334523136,84.25767063661611
0.1,-0.0857700923080207,83.37311071352275
0.11,-0.07798428903177741,83.12860499893185
0.12,-0.07125062133340483,83.49494632557146
0.13,-0.07019848575553413,82.94585158085879
0.14,-0.06822047086913717,82.67130420850246
0.15,-0.07234484233439038,82.64042806024354
0.16,-0.08374999199850894,82.57951025421919
0.17,-0.09507097081639783,82.67130420850246
0.18,-0.09721732739525409,82.18229277932066
0.19,-0.09263001627573776,82.2440450758385
0.2,-0.09414509150787159,81.69411584063235
0.21,-0.10773868317396124,81.26685670796839
0.22,-0.11581908441200833,80.41233844264046
0.23,-0.11552448645020454,79.77144974364452
0.24,-0.11674496372053456,79.37506675923947
0.25,-0.12116393314759157,79.5277785195471
0.26,-0.12511996292038546,79.40510841700491
0.27,-0.12406782734251474,79.40510841700491
0.28,-0.12099559145513225,79.37506675923947
0.29,-0.12040639553152464,79.40510841700491
0.3,-0.11640828033561593,79.00872543259987
0.31,-0.11367272783315208,79.00872543259987
0.32,-0.11703956168233837,79.10051938688315
0.33,-0.12040639553152464,79.13056104464857
0.34,-0.12070099349332845,79.03960158085879
0.35,-0.12053265180086914,79.06964323862422
0.36,-0.11809169726020907,79.83236754966887
0.37,-0.11762875760594596,79.86324369792779
0.38,-0.11733415964414216,79.71053193762016
0.39,-0.1148932051034821,79.28327280495621
0.4,-0.11169471294675513,78.64238410596026
0.41,-0.10879081875183196,77.81874198889126
0.42,-0.10361431170870804,76.7806358149968
0.43,-0.10100501547558866,75.37702280495621
0.44,-0.09629144808672786,74.67521629993591
0.45,-0.09031531800442219,73.82069803460799
0.46,-0.09094659935114463,73.42431505020295
0.47,-0.08880024277228836,73.02709757530442
0.48,-0.08711682584769521,72.26437326425977
0.49,-0.09566016674000542,71.95894974364452
0.5,-0.09477637285459403,71.83711413159581
0.51,-0.08699056957835073,71.04351367229225
0.52,-0.08774810719441765,70.6471306878872
0.53,-0.09246167458327845,70.31166550950651
0.54,-0.10054207582132554,69.51806505020295
0.55,-0.10117335716804797,69.12084757530442
0.56,-0.07276569656553866,69.09080591753899
0.57,-0.02626130402365305,68.69358844264046
0.58,0.018938440401672873,68.54087668233284
0.59,0.03539384083957086,68.32724711600085
0.6,0.01266771235756341,68.2663293099765
0.61,-0.0495766284292681,67.83907017731254
0.62,-0.10529772863330118,67.86994632557146
0.63,-0.11169471294675513,67.59539895321512
0.64,-0.10786493944330572,67.47272885067294
0.65,-0.11396732579495587,67.01542806024354
0.66,-0.1193121745305391,66.80179849391156
0.67,-0.12175312907119916,66.67996288186285
0.68,-0.12406782734251474,66.34366321298867
0.69,-0.15836744718110005,66.31362155522324
0.7,-0.05357474362517682,65.94728022858364
0.71,0.7229433982665259,65.91640408032471
0.72,1.8731800974179065,65.61181505020295
0.73,1.6848899144021634,65.52002109591967
0.74,0.14220664470500588,65.15367976928007
0.75,-0.42830335103961076,65.18455591753899
0.76,-0.031269469374317654,65.12363811151464
0.77,-0.008837938854114009,64.81821459089937
0.78,-0.1110634316000327,64.42099711600085
0.79,-0.10786493944330572,63.99373798333689
0.8,-0.09153579527475222,63.96369632557146
0.81,-0.07844722868604052,63.5364371929075
0.82,-0.07247109860373487,63.23101367229224
0.83,-0.0736915758740649,63.23101367229224
0.84,-0.06758918952241474,62.681918927579574
0.85,-0.05967712997682697,62.376495406964324
0.86,-0.048061553197134274,61.88831846827601
0.87,-0.03812939334203472,61.613771095919674
0.88,-0.025798364369389936,61.5219771416364
0.89,-0.014940325205764157,61.5219771416364
0.9,-0.012036431010840983,61.003758545182656
0.91,-0.011910174741496497,60.759252830591755
0.92,-0.003661431810990089,60.6983350245674
0.93,0.011447235087233382,60.271075891903436
0.94,0.023189068136270564,59.90473456526383
0.95,0.029291454487920712,59.56926938688314
0.96,0.041033287536957896,59.202928060243536
0.97,0.06485363701995088,59.26384586626789
0.98,0.09111494104360394,59.26384586626789
0.99,0.11762875760594596,60.66745887630848
1.0,0.14969785001944536,63.96369632557146
1.01,0.18067272143195923,64.02461413159581
1.02,0.2087436986495499,63.99373798333689
1.03,0.21909671273579773,63.96369632557146
1.04,0.18235613835655237,63.99373798333689
1.05,0.11320978817888895,73.02709757530442
1.06,0.04684107592680424,81.54140408032471
1.07,-0.0033668338491862886,88.95752109591967
1.08,-0.03585678049383397,93.90104277932066
1.09,-0.05445853751058822,96.43455591753899
1.1,-0.058582908975841425,96.40367976928006
1.11,-0.05462687920304753,96.34276196325571
1.12,-0.05020790977599053,95.82370887630849
1.13,-0.0495766284292681,94.81647885067294
1.14,-0.0531118039709137,93.50465979491561
1.15,-0.05235426635484679,90.51384586626789
1.16,-0.05294346227845439,82.03041550950651
1.17,-0.05736243170551139,81.41956846827601
1.18,-0.056141954435181364,81.38952681051057
1.19,-0.056604894089444475,81.35865066225165
1.2,-0.06409609940388397,80.99230933561205
1.21,-0.07095602337160103,80.9313915295877
1.22,-0.07600627414538047,80.96226767784661
1.23,-0.07874182664784432,80.9313915295877
1.24,-0.07920476630210745,80.44321459089937
1.25,-0.08286619811309753,80.16866721854305
1.26,-0.08101443949604507,79.68049027985474
1.27,-0.078573484955385,79.37506675923947
1.28,-0.08299245438244202,78.55142464217047
1.29,-0.0858963485773652,78.24600112155522
1.3,-0.08421293165277205,77.75782418286691
1.31,-0.0858963485773652,77.48327681051057
1.32,-0.0866538861934321,77.54419461653492
1.33,-0.0866538861934321,77.51331846827601
1.34,-0.08606469026982451,77.42152451399274
1.35,-0.08652762992408762,77.48327681051057
1.36,-0.09018906173507771,77.54419461653492
1.37,-0.09140953900540774,77.97145374919889
1.38,-0.08787436346376214,78.27604277932066
1.39,-0.08623303196228382,78.18508331553087
1.4,-0.08833730311802525,78.24600112155522
1.41,-0.08955778038835528,78.24600112155522
1.42,-0.08787436346376214,78.70330191198462
1.43,-0.09140953900540774,80.07687326425977
1.44,-0.0938504935460678,79.37506675923947
1.45,-0.09965828193591414,78.76505420850246
1.46,-0.10529772863330118,78.42875453962829
1.47,-0.08989446377327391,77.33056505020295
1.48,-0.05492147716485134,76.59788239692374
1.49,0.0027355525024638596,75.56061071352275
1.5,0.04822989488959359,74.49246288186285
1.51,0.04179082515302481,74.09524540696432
1.52,-0.0012204772703300296,73.33252109591967
1.53,-0.07066142540979724,72.75255020294809
1.54,-0.11611368237381213,72.35616721854305
1.55,-0.12099559145513225,71.83711413159581
1.56,-0.1268033798449786,71.50164895321512
1.57,-0.139471092202542,71.07438982055116
1.58,-0.147088553786326,70.31166550950651
1.59,-0.1486036290184598,69.82265408032471
1.6,-0.1608084017217601,69.48718890194402
1.61,-0.17869470654556227,69.4571472441786
1.62,0.1608084017217601,69.02988811151464
1.63,1.237353524999076,68.75450624866481
1.64,2.0651317122446398,68.23628765221106
1.65,1.0925375840609506,68.11361754966887
1.66,-0.31707157774711875,67.47272885067294
1.67,-0.3181657987481043,67.50360499893185
1.68,-0.009006280546573322,67.10722201452681
1.69,-0.10698114555789433,66.98455191198462
1.7,-0.14771983513304843,66.67996288186285
1.71,-0.12086933518578777,66.7408806878872
1.72,-0.11581908441200833,66.31362155522324
1.73,-0.11964885791545773,66.3745393612476
1.74,-0.11274684852462584,66.3745393612476
1.75,-0.09965828193591414,65.97815637684255
1.76,-0.09566016674000542,65.85548627430036
1.77,-0.09519722708574231,65.61181505020295
1.78,-0.0900207200426184,65.58093890194402
1.79,-0.08345539403670513,65.48914494766076
1.8,-0.07874182664784432,65.21459757530442
1.81,-0.0781105453011219,65.12363811151464
1.82,-0.07600627414538047,64.84825624866481
1.83,-0.06746293325307026,64.69637897885067
1.84,-0.05769911509043002,64.3600793099765
1.85,-0.05155464331566505,64.02461413159581
1.86,-0.0367826598023602,63.93282017731254
1.87,-0.009006280546573322,63.658272804956205
1.88,0.01784421940068733,63.871902371288186
1.89,0.03998115195908718,64.78733844264046
1.9,0.0686834105234003,64.81821459089937
1.91,0.10331971374690424,64.91000854518265
1.92,0.13761933358548956,65.97815637684255
1.93,0.16585865249553955,71.28801938688315
1.94,0.17469659134965357,76.59788239692374
1.95,0.1441846595914028,86.39396629993591
1.96,0.07508039483685423,93.4737836466567
1.97,-0.0022726128482007447,99.21174027985474
1.98,-0.06485363701995088,99.48628765221106
1.99,-0.10618152251871257,99.54720545823542
2.0,-0.1301702136941649,99.57724711600085
2.01,-0.14237498639746518,99.57724711600085
2.02,-0.14679395582452218,99.36361754966887
2.03,-0.14616267447779976,99.08907017731254
2.04,-0.14250124266680966,98.63176938688315
2.05,-0.14006028812614962,98.17363410596026
2.06,-0.13854521289401578,96.16000854518265
2.07,-0.1356413186990926,88.7438915295877
2.08,-0.13429458515941808,88.13387897885067
2.09,-0.1322744848499063,87.92024941251869
2.1,-0.1301702136941649,87.82845545823542
2.11,-0.13336870585089186,87.85849711600085
2.12,-0.13959734847188648,87.82845545823542
2.13,-0.14435300128386214,87.82845545823542
2.14,-0.14818277478731154,87.40119632557146
2.15,-0.1518442065983016,87.30940237128819
2.16,-0.15213880456010542,86.9739371929075
2.17,-0.14894031240337843,86.91301938688315
2.18,-0.14603641820845528,85.99758331553087
2.19,-0.14894031240337843,85.32581846827601
2.2,-0.15028704594305295,84.44125854518265
2.21,-0.15272800048371302,83.55586413159581
2.22,-0.1599246078363487,82.45767464217047
2.23,-0.16556405453373574,81.9995393612476
2.24,-0.16324935626242018,81.2977328562273
2.25,-0.16097674341421944,81.41956846827601
2.26,-0.16893088838292203,81.2977328562273
2.27,-0.1762537520049022,81.41956846827601
2.28,-0.1760854103124429,81.41956846827601
2.29,-0.17823176689129916,81.38952681051057
2.3,-0.18294533428015997,81.32777451399274
2.31,-0.18113566108622234,81.66407418286691
2.32,-0.1771375458903136,81.26685670796839
2.33,-0.17591706861998357,81.38952681051057
2.34,-0.17410739542604595,81.48048627430036
2.35,-0.17440199338784976,81.87770374919889
2.36,-0.1754962143888353,81.60315637684255
2.37,-0.1760854103124429,81.23681505020295
2.38,-0.17776882723703605,80.65684415723136
2.39,-0.17957850043097368,80.01595545823542
2.4,-0.17928390246916986,79.13056104464857
2.41,-0.1757908123506391,78.3377950758385
2.42,-0.17347611407932353,77.20789494766076
2.43,-0.17457033508030906,76.44517063661611
2.44,-0.17318151611751972,75.59065237128819
2.45,-0.1713718429235821,74.76701025421919
2.46,-0.16952008430652965,74.1870393612476
2.47,-0.16724747145832888,73.82069803460799
2.48,-0.16661619011160647,73.42431505020295
2.49,-0.16724747145832888,72.99705591753899
2.5,-0.16556405453373574,72.59983844264046
2.51,-0.1631230999930757,72.26437326425977
2.52,-0.15958792445143008,71.77619632557146
2.53,-0.1599246078363487,71.37897885067294
2.54,-0.1628285020312719,71.16618377483444
2.55,-0.16249181864635326,71.13530762657551
2.56,-0.15883038683536316,70.6471306878872
2.57,-0.15748365329568864,70.34170716727195
2.58,-0.15592649264044,70.21987155522324
2.59,-0.15638943229470312,69.79261242255929
2.6,-0.15958792445143008,69.51806505020295
2.61,-0.15748365329568864,69.4571472441786
2.62,-0.14894031240337843,69.09080591753899
2.63,-0.14250124266680966,68.99901196325571
2.64,-0.1434271219753359,68.63267063661611
2.65,-0.14540513686173284,68.32724711600085
2.66,-0.13808227323975267,68.08357589190344
2.67,-0.11413566748741519,67.96174027985474
2.68,-0.0736915758740649,67.93086413159581
2.69,-0.021379394942332933,67.68635841700491
2.7,0.004124371465253204,67.50360499893185
2.71,-0.013425249973630326,67.01542806024354
2.72,-0.06014006963109008,66.77092234565264
2.73,-0.10618152251871257,66.58816892757957
2.74,-0.12099559145513225,66.46633331553087
2.75,-0.12495162122792614,66.00819803460799
2.76,-0.12941267607809798,65.85548627430036
2.77,-0.13273742450416942,65.45910328989532
2.78,-0.13795601697040819,65.0618858149968
2.79,-0.14161744878139826,64.69637897885067
2.8,-0.16876254669046273,64.23824369792779
2.81,-0.11687121998987905,63.96369632557146
2.82,0.5073397756492589,63.84186071352275
2.83,1.6963371494893968,63.56647885067293
2.84,1.9429156435191774,63.59735499893185
2.85,0.498964776449408,63.04826025421918
2.86,-0.4510294795216182,62.56008331553087
2.87,-0.13273742450416942,62.28553594317454
2.88,-0.010226757816903352,62.16286584063234
2.89,-0.1313906909644949,61.827400662251655
2.9,-0.13395790177449945,61.40014152958769
2.91,-0.11291519021708515,61.12559415723136
2.92,-0.10971669806035818,61.064676351207005
2.93,-0.10740199978904261,60.820170636616105
2.94,-0.10298303036198561,60.820170636616105
2.95,-0.09902700058919171,60.42378765221107
2.96,-0.09199873492901534,60.33199369792779
2.97,-0.08374999199850894,60.24019974364452
2.98,-0.07630087210718427,59.965652371288186
2.99,-0.07095602337160103,60.02657017731254
3.0,-0.06346481805716155,59.93561071352275
3.01,-0.054332281241243736,59.81294061098056
3.02,-0.05067084943025364,59.56926938688314
3.03,-0.050965447392057446,59.56926938688314
3.04,-0.04440012138614418,59.44743377483444
3.05,-0.029165198218576226,59.020174642170474
3.06,-0.016918340092161102,58.65383331553087
3.07,-0.005807788389846348,58.744792779320655
3.08,0.014182787589697241,58.714751121555224
3.09,0.03754019741842712,59.17205191198462
3.1,0.06392775771142466,61.98011242255928
3.11,0.09368215185360848,68.02265808587909
3.12,0.1226790083797254,77.51331846827601
3.13,0.147088553786326,86.30217234565264
3.14,0.1635860396473388,92.7719771416364
3.15,0.15516895502437308,97.59366321298867
3.16,0.11733415964414216,98.90631675923947
3.17,0.05875125066830074,99.11994632557146
3.18,-0.0016834169245931443,99.30269974364452
3.19,-0.05050250773779433,99.60812326425977
3.2,-0.07520665110619873,99.54720545823542
3.21,-0.0819403188045713,99.39449369792779
3.22,-0.08926318242655149,98.87544061098056
3.23,-0.0978065233188617,97.8690450758385
3.24,-0.09675438774099097,97.13636242255929
3.25,-0.08774810719441765,93.26015408032471
3.26,-0.07996230391817435,89.8120393612476
3.27,-0.08118278118850439,86.66851367229225
3.28,-0.08362373572916444,85.93666550950651
3.29,-0.08438127334523136,85.6612836466567
3.3,-0.08804270515622145,85.50940637684255
3.31,-0.08787436346376214,85.38673627430036
3.32,-0.08299245438244202,85.0821472441786
3.33,-0.08374999199850894,85.17310670796839
3.34,-0.08821104684868077,85.05127109591967
3.35,-0.09566016674000542,85.14306505020295
3.36,-0.10117335716804797,84.89855933561205
3.37,-0.10087875920624417,84.65488811151464
3.38,-0.102393834438378,84.50217635120701
3.39,-0.10832787909756884,84.01399941251869
3.4,-0.1145986071416783,83.18952280495621
3.41,-0.11476694883413761,82.45767464217047
3.42,-0.11198931090855893,81.81678594317454
3.43,-0.1193121745305391,81.32777451399274
3.44,-0.12983353030924627,81.2977328562273
3.45,-0.13105400757957628,80.99230933561205
3.46,-0.12726631949924172,80.71776196325571
3.47,-0.13029646996350938,80.62596800897244
3.48,-0.13244282654236564,80.44321459089937
3.49,-0.1301702136941649,80.53500854518265
3.5,-0.12878139473137554,80.53500854518265
3.51,-0.1260458422289117,80.62596800897244
3.52,-0.12053265180086914,80.56505020294809
3.53,-0.1193121745305391,80.71776196325571
3.54,-0.1226790083797254,80.80955591753899
3.55,-0.1263404401907155,80.35142063661611
3.56,-0.12575124426710788,79.95503765221106
3.57,-0.12373114395759612,79.55782017731254
3.58,-0.12419408361185923,78.79509586626789
3.59,-0.12785551542284931,78.0932893612476
3.6,-0.1270979778067824,76.93334757530442
3.61,-0.12314194803398851,76.44517063661611
3.62,-0.12389948565005543,75.43794061098056
3.63,-0.12819219880776794,74.85880420850246
3.64,-0.13046481165596868,74.21791550950651
3.65,-0.13214822858056183,73.69886242255929
3.66,-0.13290576619662875,73.33252109591967
3.67,-0.13105400757957628,72.81346800897244
3.68,-0.1263404401907155,72.23349711600085
3.69,-0.12192147076365847,72.38620887630849
3.7,-0.12006971214660603,71.95894974364452
3.71,-0.12406782734251474,71.53169061098056
3.72,-0.12528830461284476,71.37897885067294
3.73,-0.12894973642383487,71.04351367229225
3.74,-0.135052122775485,70.73892464217047
3.75,-0.12878139473137554,70.70804849391156
3.76,-0.11796544099086459,70.15895374919889
3.77,-0.11796544099086459,70.00624198889126
3.78,-0.12116393314759157,69.67077681051057
3.79,-0.12284735007218471,69.39539494766076
3.8,-0.12192147076365847,68.84630020294809
3.81,-0.12436242530431854,68.72446459089937
3.82,-0.11796544099086459,68.69358844264046
3.83,-0.09477637285459403,68.60262897885067
3.84,-0.061023863516501485,68.35812326425977
3.85,-0.020158917672002903,68.32724711600085
3.86,-0.0038297735034494036,68.29720545823542
3.87,-0.022894470174466764,68.23628765221106
3.88,-0.06624245598274023,67.74811071352275
3.89,-0.11518780306528591,67.53448114719077
3.9,-0.1312223492720356,67.4426871929075
3.91,-0.1313906909644949,67.22905762657551
3.92,-0.14144910708893896,67.04630420850246
3.93,-0.14633101617025907,66.86271629993591
3.94,-0.139471092202542,66.80179849391156
3.95,-0.139471092202542,66.03907418286691
3.96,-0.17212938053964902,65.61181505020295
3.97,-0.08926318242655149,65.45910328989532
3.98,0.6353636327645675,64.94005020294809
3.99,1.8055909078954917,64.87913239692374
4.0,1.7465029738422724,64.81821459089937
4.01,0.22414696350957716,64.63462668233284
4.02,-0.4472417914412836,64.39095545823542
4.03,-0.07003014406307481,64.20736754966887
4.04,-0.02121105324987362,63.99373798333689
4.05,-0.12099559145513225,63.50556104464858
4.06,-0.10954835636789886,62.95646629993591
4.07,-0.09460803116213472,62.651042779320655
4.08,-0.09460803116213472,62.346453749198886
4.09,-0.09140953900540774,62.16286584063234
4.1,-0.08454961503769068,61.73560670796838
4.11,-0.08130903745784887,61.40014152958769
4.12,-0.07844722868604052,60.94200624866482
4.13,-0.07171356098766794,60.88108844264046
4.14,-0.06422235567322845,60.6983350245674
4.15,-0.06485363701995088,60.42378765221107
4.16,-0.06317022009535775,60.271075891903436
4.17,-0.05155464331566505,60.24019974364452
4.18,-0.04637813627254113,60.02657017731254
4.19,-0.04503140273286661,59.84381675923948
4.2,-0.03417336356924083,59.66022885067293
4.21,-0.02504082675332302,59.84381675923948
4.22,-0.0163291441685535,59.50835158085879
4.23,-0.0033668338491862886,59.3856814783166
4.24,0.01388818962789344,59.08109244819483
4.25,0.03282663002956632,60.17928193762017
4.26,0.0617814011325684,60.759252830591755
4.27,0.0978065233188617,60.6983350245674
4.28,0.13185363061875804,67.4426871929075
4.29,0.1600508641056932,76.87242976928006
4.3,0.17334985780997905,83.00676938688315
4.31,0.15470601537010997,92.46738811151464
4.32,0.10437184932477495,95.48824369792779
4.33,0.04027574992089098,96.8008972441786
4.34,-0.014645727243960356,96.8008972441786
4.35,-0.056141954435181364,96.9227328562273
4.36,-0.07920476630210745,96.9227328562273
4.37,-0.08896858446474767,96.77002109591967
4.38,-0.09507097081639783,96.16000854518265
4.39,-0.0938504935460678,94.75556104464857
4.4,-0.08711682584769521,92.28380020294809
4.41,-0.08543340892310207,89.78116321298867
4.42,-0.08223491676637511,86.45488410596026
4.43,-0.07920476630210745,84.50217635120701
4.44,-0.08454961503769068,83.58674027985474
4.45,-0.093555895584264,82.8231814783166
4.46,-0.09519722708574231,82.42679849391156
4.47,-0.09275627254508226,82.2440450758385
4.48,-0.09321921219934537,82.27408673360392
4.49,-0.093555895584264,82.06045716727195
4.5,-0.09629144808672786,81.78590979491561
4.51,-0.10483478897903807,81.81678594317454
4.52,-0.10529772863330118,81.72499198889126
4.53,-0.09810112128066549,81.66407418286691
4.54,-0.09919534228165103,81.2977328562273
4.55,-0.10252009070772249,80.71776196325571
4.56,-0.10100501547558866,80.13779107028412
4.57,-0.1016362968223111,79.64961413159581
4.58,-0.10605526624936809,79.1614371929075
4.59,-0.10454019101723426,79.1614371929075
4.6,-0.10176255309165558,78.97868377483444
4.61,-0.10407725136297115,79.06964323862422
4.62,-0.1066444621729757,79.06964323862422
4.63,-0.10786493944330572,79.06964323862422
4.64,-0.10344597001624872,79.03960158085879
4.65,-0.0988586588967324,79.03960158085879
4.66,-0.1016362968223111,79.00872543259987
4.67,-0.11064257736888441,79.13056104464857
4.68,-0.11140011498495132,78.97868377483444
4.69,-0.10559232659510498,80.50413239692374
4.7,-0.10222549274591869,81.54140408032471
4.71,-0.10146795512985178,81.14502109591967
4.72,-0.10634986421117189,80.32137897885067
4.73,-0.11245225056282204,79.37506675923947
4.74,-0.11152637125429582,78.48967234565264
4.75,-0.10925375840609507,77.11693548387096
4.76,-0.10344597001624872,75.83515808587909
4.77,-0.09414509150787159,75.19426938688315
4.78,-0.07613253041472495,74.1870393612476
4.79,-0.050039568083531216,73.91249198889126
4.8,-0.0034930901185307745,73.42431505020295
4.81,0.03417336356924083,73.14976767784661
4.82,0.028365575179394482,72.72250854518265
4.83,-0.010058416124444037,72.38620887630849
4.84,-0.07491205314439492,72.20345545823542
4.85,-0.11948051622299842,71.77619632557146
4.86,-0.12221606872546228,71.25714323862422
4.87,-0.11948051622299842,70.95255420850246
4.88,-0.12558290257464857,70.34170716727195
4.89,-0.13046481165596868,69.91444803460799
4.9,-0.1313906909644949,69.91444803460799
4.91,-0.14389006162959903,69.94532418286691
4.92,-0.17149809919292658,69.70081846827601
4.93,0.10496104524838255,69.60902451399274
4.94,1.1183359484303406,69.51806505020295
4.95,2.0428264379937806,69.09080591753899
4.96,1.2389948565005542,69.09080591753899
4.97,-0.2209484713528502,68.90721800897244
4.98,-0.32944469214287836,68.69358844264046
4.99,0.008374999199850894,68.75450624866481
5.0,-0.07735300768505499,68.72446459089937
5.01,-0.13673553970007815,68.75450624866481
5.02,-0.11687121998987905,68.78538239692374
5.03,-0.11152637125429582,68.47995887630849
5.04,-0.10407725136297115,68.2663293099765
5.05,-0.09658604604853166,68.02265808587909
5.06,-0.09275627254508226,67.38176938688315
5.07,-0.08682222788589142,67.10722201452681
5.08,-0.07705840972325119,67.10722201452681
5.09,-0.06788378748421854,66.95451025421919
5.1,-0.058919592360760054,66.55729277932066
5.11,-0.05126004535386124,66.31362155522324
5.12,-0.04334798580827347,65.73365066225165
5.13,-0.036025122186293286,65.36730933561205
5.14,-0.028070977217590682,65.09276196325571
5.15,-0.01877009870921356,64.57370887630849
5.16,-0.005344848735583233,64.05549027985474
5.17,0.011615576779692697,63.96369632557146
5.18,0.02748178129398308,63.99373798333689
5.19,0.04120162922941721,64.23824369792779
5.2,0.06165514486322391,66.31362155522324
5.21,0.08850564481048456,71.77619632557146
5.22,0.12116393314759157,79.1614371929075
5.23,0.15702071364142553,86.57755420850246
5.24,0.1835766156268824,89.47657418286691
5.25,0.19544470494526406,92.43651196325571
5.26,0.18189319870228926,96.52551538132877
5.27,0.1322744848499063,98.8145228049562
5.28,0.06317022009535775,99.57724711600085
5.29,0.0006312813467224291,99.54720545823542
5.3,-0.044568463078603494,99.57724711600085
5.31,-0.07310237995045729,99.72995887630849
5.32,-0.08497046926883896,99.48628765221106
5.33,-0.08787436346376214,98.53997543259987
5.34,-0.0863592882316283,95.1527785195471
5.35,-0.08391833369096825,92.34471800897244
5.36,-0.08345539403670513,90.20842234565264
5.37,-0.08543340892310207,88.9883972441786
5.38,-0.08316079607490133,88.34750854518265
5.39,-0.08130903745784887,88.22483844264046
5.4,-0.08223491676637511,88.10300283059175
5.41,-0.0778159473393181,87.7975793099765
5.42,-0.07003014406307481,87.76753765221106
5.43,-0.0735653196047204,87.85849711600085
5.44,-0.07966770595637056,87.88937326425977
5.45,-0.08240325845883442,87.85849711600085
5.46,-0.08484421299949448,87.85849711600085
5.47,-0.08880024277228836,87.61482589190344
5.48,-0.0943134332003309,87.12664895321512
5.49,-0.09843780466558412,86.36392464217047
5.5,-0.09734358366459857,85.41761242255929
5.51,-0.09965828193591414,84.53221800897244
5.52,-0.10146795512985178,83.31135841700491
5.53,-0.09948994024345482,82.88493377483444
5.54,-0.09995287989771795,82.64042806024354
5.55,-0.10041581955198106,82.2440450758385
5.56,-0.10007913616706243,82.21316892757957
5.57,-0.09995287989771795,82.2440450758385
5.58,-0.09629144808672786,82.2440450758385
5.59,-0.0944396894696754,82.18229277932066
5.6,-0.0938504935460678,82.21316892757957
5.61,-0.09309295593000089,82.21316892757957
5.62,-0.0897261220808146,82.21316892757957
5.63,-0.08682222788589142,82.2440450758385
5.64,-0.08867398650294388,82.27408673360392
5.65,-0.0894315241190108,82.30496288186285
5.66,-0.08745350923261384,82.21316892757957
5.67,-0.09111494104360394,82.2440450758385
5.68,-0.09018906173507771,81.72499198889126
5.69,-0.08530715265375759,80.99230933561205
5.7,-0.08497046926883896,80.13779107028412
5.71,-0.0858963485773652,79.06964323862422
5.72,-0.08362373572916444,78.18508331553087
5.73,-0.08042524357243747,76.96422372356334
5.74,-0.07554333449111736,76.56700624866481
5.75,-0.07263944029619418,75.6215285195471
5.76,-0.07066142540979724,75.19426938688315
5.77,-0.07019848575553413,74.82792806024354
5.78,-0.07263944029619418,74.12612155522324
5.79,-0.07520665110619873,73.91249198889126
5.8,-0.07263944029619418,73.57702681051057
5.81,-0.07171356098766794,73.30164494766076
5.82,-0.07217650064193107,72.84434415723136
5.83,-0.07293403825799798,72.44712668233284
5.84,-0.07461745518259112,72.20345545823542
5.85,-0.07798428903177741,71.62348456526384
5.86,-0.07886808291718882,71.47077280495621
5.87,-0.07339697791226109,71.31806104464857
5.88,-0.0686834105234003,70.86076025421919
5.89,-0.07310237995045729,70.55533673360392
5.9,-0.07583793245292116,70.34170716727195
5.91,-0.0736915758740649,70.0362836466567
5.92,-0.06788378748421854,69.70081846827601
5.93,-0.05980338624617145,69.39539494766076
5.94,-0.04974497012172741,69.51806505020295
5.95,-0.04503140273286661,68.90721800897244
5.96,-0.0492820304674643,68.72446459089937
5.97,-0.05631029612764068,68.41904107028412
5.98,-0.06056092386223837,68.2663293099765
5.99,-0.06422235567322845,68.2663293099765
6.0,-0.057993713052233824,68.2663293099765
6.01,-0.03387876560743703,68.05269974364452
6.02,0.010984295432970267,67.86994632557146
6.03,0.053700999894521304,67.74811071352275
6.04,0.05934044659190834,67.56452280495621
6.05,0.029754394142183827,67.01542806024354
6.06,-0.024409545406600595,66.19178594317454
6.07,-0.07188190268012726,65.70277451399274
6.08,-0.08374999199850894,65.58093890194402
6.09,-0.08560175061556138,65.39818548387096
6.1,-0.08926318242655149,64.91000854518265
6.11,-0.09599685012492405,64.54366721854305
6.12,-0.10071041751378486,64.11640808587909
6.13,-0.10773868317396124,64.05549027985474
6.14,-0.14389006162959903,63.81098456526383
6.15,0.02457788709905991,63.383725432599874
6.16,0.8930947639197779,63.17009586626789
6.17,1.9969112413755026,62.926424642170474
6.18,1.6474759732530808,62.4682893612476
6.19,0.0858963485773652,62.101948034607986
6.2,-0.39244657054577675,61.64464724417859
6.21,-0.010521355778707152,61.64464724417859
6.22,-0.028533916871853797,61.36926538132877
6.23,-0.12297360634152919,61.09471800897244
6.24,-0.10984295432970267,61.21738811151463
6.25,-0.10087875920624417,60.91196459089938
6.26,-0.0988586588967324,60.514747116000855
6.27,-0.09111494104360394,60.14924027985473
6.28,-0.08088818322670059,59.87385841700491
6.29,-0.0736915758740649,59.996528519547105
6.3,-0.06910426475454857,59.93561071352275
6.31,-0.06363315974962086,59.56926938688314
6.32,-0.05677323578190379,59.6301871929075
6.33,-0.04991331181418673,59.35563982055116
6.34,-0.03968655399728338,59.202928060243536
6.35,-0.029459796180380027,58.83658673360393
6.36,-0.01906469667101736,58.80654507583849
6.37,-0.011278893394774068,58.5620393612476
6.38,-0.005639446697387034,58.10390408032472
6.39,0.0012204772703300296,57.98206846827601
6.4,0.014182787589697241,58.01294461653493
6.41,0.028533916871853797,59.93561071352275
6.42,0.04654647796500044,65.36730933561205
6.43,0.07432285722078733,67.56452280495621
6.44,0.11001129602216199,67.50360499893185
6.45,0.14098616743467585,81.96866321298867
6.46,0.17090890326931898,90.57476367229225
6.47,0.19973741810297657,95.45736754966887
6.48,0.21787623546546772,97.16640408032471
6.49,0.20310425195216286,97.83816892757957
6.5,0.15394847775404305,98.23455191198462
6.51,0.09077825765868532,98.63176938688315
6.52,0.0373718557259678,98.99811071352275
6.53,-0.003198492156726974,99.30269974364452
6.54,-0.028365575179394482,98.90631675923947
6.55,-0.04301130242335484,98.26542806024354
6.56,-0.0492820304674643,97.16640408032471
6.57,-0.04591519661827801,95.27461413159581
6.58,-0.04259044819220655,91.73470545823542
6.59,-0.040444091613350296,89.04931505020295
6.6,-0.03434170526170015,87.30940237128819
6.61,-0.02504082675332302,86.24125453962829
6.62,-0.021968590865940534,85.60036584063235
6.63,-0.02626130402365305,85.47853022858364
6.64,-0.026850499947260652,85.44765408032471
6.65,-0.028828514833657597,85.53944803460799
6.66,-0.03417336356924083,85.44765408032471
6.67,-0.03585678049383397,85.47853022858364
6.68,-0.03981281026662786,85.47853022858364
6.69,-0.05264886431665059,85.50940637684255
6.7,-0.06317022009535775,85.50940637684255
6.71,-0.06775753121487406,85.2039828562273
6.72,-0.07095602337160103,84.77672372356334
6.73,-0.07339697791226109,84.47130020294809
6.74,-0.07322863621980177,84.25767063661611
6.75,-0.07491205314439492,83.0676871929075
6.76,-0.0781105453011219,82.3658806878872
6.77,-0.07827888699358121,81.93862155522324
6.78,-0.0739861738358687,81.7550336466567
6.79,-0.06880966679274478,81.7550336466567
6.8,-0.06729459156061095,81.81678594317454
6.81,-0.07112436506406035,81.78590979491561
6.82,-0.07508039483685423,81.54140408032471
6.83,-0.07263944029619418,81.41956846827601
6.84,-0.06636871225208471,81.38952681051057
6.85,-0.06392775771142466,81.57228022858364
6.86,-0.06712624986815163,81.38952681051057
6.87,-0.07154521929520863,81.45044461653492
6.88,-0.07032474202487861,81.38952681051057
6.89,-0.06927260644700789,81.08410328989532
6.9,-0.06636871225208471,80.96226767784661
6.91,-0.06439069736568777,80.44321459089937
6.92,-0.0659057725978216,79.68049027985474
6.93,-0.06636871225208471,78.97868377483444
6.94,-0.0656111746360178,78.70330191198462
6.95,-0.06666331021388852,76.59788239692374
6.96,-0.06834672713848167,76.01791150395215
6.97,-0.06910426475454857,75.28522885067294
6.98,-0.06729459156061095,74.70609244819482
6.99,-0.06514823498175469,74.33975112155522
7.0,-0.0611922052089608,74.27883331553087
7.01,-0.05934044659190834,74.06520374919889
7.02,-0.05967712997682697,73.63794461653492
7.03,-0.060434667592893884,73.21068548387096
7.04,-0.05769911509043002,72.8743858149968
7.05,-0.058456652706496935,72.50887897885067
7.06,-0.06270728044109462,72.05074369792779
7.07,-0.06712624986815163,71.7152785195471
7.08,-0.07078768167914172,71.37897885067294
7.09,-0.07247109860373487,70.79984244819482
7.1,-0.07432285722078733,70.76896629993591
7.11,-0.0739861738358687,70.49441892757957
7.12,-0.07200815894947175,69.97536584063235
7.13,-0.0735653196047204,69.94532418286691
7.14,-0.07491205314439492,69.97536584063235
7.15,-0.07432285722078733,69.54810670796839
7.16,-0.07234484233439038,69.2126415295877
7.17,-0.07154521929520863,68.81625854518265
7.18,-0.07217650064193107,68.38899941251869
7.19,-0.0686834105234003,68.35812326425977
7.2,-0.06346481805716155,68.05269974364452
7.21,-0.059045848630104536,67.96174027985474
7.22,-0.041959166845484126,67.56452280495621
7.23,-0.0026092962331193737,67.56452280495621
7.24,0.044568463078603494,67.62544061098056
7.25,0.05479522089550685,67.16813982055116
7.26,0.021379394942332933,66.92363410596026
7.27,-0.032658288337107,66.4963749732963
7.28,-0.07689006803079187,66.40541550950651
7.29,-0.08880024277228836,66.03907418286691
7.3,-0.08652762992408762,65.85548627430036
7.31,-0.09263001627573776,65.64185670796839
7.32,-0.09721732739525409,65.3063915295877
7.33,-0.093555895584264,64.94005020294809
7.34,-0.09566016674000542,64.81821459089937
7.35,-0.12086933518578777,64.39095545823542
7.36,0.13854521289401578,63.81098456526383
7.37,1.139084062025951,63.658272804956205
7.38,2.111215250555377,63.35368377483444
7.39,1.3910074047913152,62.895548493911555
7.4,-0.11611368237381213,62.77371288186285
7.41,-0.31067459343366477,62.52920716727195
7.42,0.04835615115893807,62.40737155522324
7.43,-0.02243153052020365,61.73560670796838
7.44,-0.08497046926883896,61.582894947660755
7.45,-0.05782537135977451,61.24742976928007
7.46,-0.05113378908451676,61.09471800897244
7.47,-0.058582908975841425,61.21738811151463
7.48,-0.057530773397970705,60.88108844264046
7.49,-0.04991331181418673,60.545623264259774
7.5,-0.04410552342434038,60.11836413159581
7.51,-0.03829773503449403,60.02657017731254
7.52,-0.035562182532030175,59.996528519547105
7.53,-0.03690891607170469,59.90473456526383
7.54,-0.03173240902858077,60.02657017731254
7.55,-0.02394660575233748,59.56926938688314
7.56,-0.018475500747409758,59.26384586626789
7.57,-0.017717963131342843,59.14201025421918
7.58,-0.008837938854114009,58.89750453962829
7.59,0.010058416124444037,58.775668927579574
7.6,0.02028517394134739,58.5620393612476
7.61,0.027313439601523767,58.65383331553087
7.62,0.04730401558106736,60.02657017731254
7.63,0.06990388779373032,60.42378765221107
7.64,0.09368215185360848,60.42378765221107
7.65,0.1270979778067824,60.33199369792779
7.66,0.1626601603388126,64.72642063661611
7.67,0.19014194163279566,72.23349711600085
7.68,0.21042711557414304,81.08410328989532
7.69,0.2209484713528502,88.65209757530442
7.7,0.20171543298937353,96.46459757530442
7.71,0.14052322778041273,98.60089323862422
7.72,0.07293403825799798,98.8145228049562
7.73,0.027902635525131367,98.72272885067294
7.74,0.0009258793085262294,98.8145228049562
7.75,-0.025167083022667507,97.7463749732963
7.76,-0.04637813627254113,96.34276196325571
7.77,-0.05248052262419128,93.68741321298867
7.78,-0.0492820304674643,90.60563982055116
7.79,-0.042716704461551035,89.9338749732963
7.8,-0.03812939334203472,87.7975793099765
7.81,-0.04057034788269478,85.81399540696432
7.82,-0.03783479538023092,84.8376415295877
7.83,-0.027018841639719966,84.31858844264046
7.84,-0.021968590865940534,84.25767063661611
7.85,-0.023483666098074365,84.28854678487502
7.86,-0.026850499947260652,83.98312326425977
7.87,-0.03202700699038457,83.92220545823542
7.88,-0.03526758457022638,83.8913293099765
7.89,-0.03829773503449403,83.92220545823542
7.9,-0.04288504615401035,83.95224711600085
7.91,-0.05020790977599053,83.86128765221106
7.92,-0.05555275851157376,83.61678193762016
7.93,-0.05399559785632511,83.12860499893185
7.94,-0.05020790977599053,82.76226367229225
7.95,-0.04974497012172741,81.90774540696432
7.96,-0.05340640193271751,81.11414494766076
7.97,-0.05980338624617145,80.59592635120701
7.98,-0.061949742825027715,80.50413239692374
7.99,-0.0617814011325684,80.56505020294809
8.0,-0.061949742825027715,80.53500854518265
8.01,-0.06014006963109008,80.32137897885067
8.02,-0.060434667592893884,79.86324369792779
8.03,-0.0659057725978216,80.01595545823542
8.04,-0.06699999359880715,80.16866721854305
8.05,-0.061949742825027715,80.19870887630849
8.06,-0.060434667592893884,80.13779107028412
8.07,-0.06636871225208471,80.19870887630849
8.08,-0.07339697791226109,80.19870887630849
8.09,-0.0778159473393181,80.2295850245674
8.1,-0.07537499279865804,80.80955591753899
8.11,-0.06544283294355849,80.6868858149968
8.12,-0.061949742825027715,80.25962668233284
8.13,-0.07078768167914172,79.6187379833369
8.14,-0.07642712837652875,78.88688982055116
8.15,-0.07689006803079187,77.8487836466567
8.16,-0.07188190268012726,76.90330591753899
8.17,-0.06775753121487406,76.04878765221106
8.18,-0.06653705394454403,75.2551871929075
8.19,-0.06346481805716155,74.12612155522324
8.2,-0.06056092386223837,73.60706846827601
8.21,-0.05967712997682697,72.8743858149968
8.22,-0.05492147716485134,72.72250854518265
8.23,-0.05323806024025819,72.47800283059175
8.24,-0.05567901478091825,72.35616721854305
8.25,-0.059045848630104536,71.62348456526384
8.26,-0.061360546901420114,71.53169061098056
8.27,-0.06056092386223837,70.70804849391156
8.28,-0.057067833743707594,70.31166550950651
8.29,-0.04789321150467496,70.00624198889126
8.3,-0.02150565121167742,69.97536584063235
8.31,0.022894470174466764,69.51806505020295
8.32,0.05677323578190379,69.2126415295877
8.33,0.058119969321578306,69.09080591753899
8.34,0.02655590198545685,69.05992976928007
8.35,-0.027313439601523767,68.63267063661611
8.36,-0.05462687920304753,68.63267063661611
8.37,-0.05218592466238747,68.35812326425977
8.38,-0.057530773397970705,68.32724711600085
8.39,-0.06956720440881169,68.32724711600085
8.4,-0.08055149984178196,67.99178193762016
8.41,-0.08896858446474767,67.56452280495621
8.42,-0.09932159855099551,67.53448114719077
8.43,-0.12086933518578777,67.25993377483444
8.44,0.20112623706576593,67.10722201452681
8.45,1.2840262592334208,66.67996288186285
8.46,2.097327060927484,66.40541550950651
8.47,1.0935897196388213,66.43545716727195
8.48,-0.26884168285752513,66.09999198889126
8.49,-0.23454206301893984,65.76452681051057
8.5,0.05782537135977451,65.61181505020295
8.51,-0.04503140273286661,65.33726767784661
8.52,-0.0819403188045713,65.21459757530442
8.53,-0.05248052262419128,64.94005020294809
8.54,-0.049450372159923615,64.78733844264046
8.55,-0.04822989488959359,64.45187326425977
8.56,-0.03724559945662332,64.02461413159581
8.57,-0.031269469374317654,63.689148953215124
8.58,-0.032195348682843884,63.26188982055116
8.59,-0.027608037563327567,62.864672345652636
8.6,-0.014477385551501042,62.74283673360393
8.61,-0.008248742930506408,62.376495406964324
8.62,-0.006270728044109462,62.04103022858364
8.63,-0.002903894194923174,61.64464724417859
8.64,0.0034930901185307745,61.5219771416364
8.65,0.010689697471166467,61.15563581499679
8.66,0.012036431010840983,60.820170636616105
8.67,0.013130652011826525,60.759252830591755
8.68,0.026387560292997537,60.42378765221107
8.69,0.04440012138614418,60.36286984618671
8.7,0.061360546901420114,60.271075891903436
8.71,0.08374999199850894,62.01015408032472
8.72,0.11518780306528591,66.83267464217047
8.73,0.1518442065983016,75.22431104464857
8.74,0.180967319393763,76.65880020294809
8.75,0.20112623706576593,85.0821472441786
8.76,0.22078012966039087,89.99479277932066
8.77,0.216824099887597,94.45097201452681
8.78,0.17334985780997905,96.06821459089937
8.79,0.10466644728657876,96.73914494766076
8.8,0.041959166845484126,96.77002109591967
8.81,0.000757537616066915,97.01452681051057
8.82,-0.02457788709905991,97.44178594317454
8.83,-0.03968655399728338,97.56362155522324
8.84,-0.042716704461551035,97.56362155522324
8.85,-0.038929016381216465,96.52551538132877
8.86,-0.03417336356924083,94.60368377483444
8.87,-0.029754394142183827,91.73470545823542
8.88,-0.026850499947260652,88.77476767784661
8.89,-0.028070977217590682,85.96670716727195
8.9,-0.030511931758250743,85.53944803460799
8.91,-0.03173240902858077,84.53221800897244
8.92,-0.030385675488906257,83.55586413159581
8.93,-0.03812939334203472,83.12860499893185
8.94,-0.04625188000319664,83.03681104464857
8.95,-0.05067084943025364,83.09772885067294
8.96,-0.057993713052233824,82.73222201452681
8.97,-0.06455903905814708,82.64042806024354
8.98,-0.0659057725978216,82.18229277932066
8.99,-0.06653705394454403,82.2440450758385
9.0,-0.06822047086913717,82.21316892757957
9.01,-0.07200815894947175,81.90774540696432
9.02,-0.07432285722078733,81.45044461653492
9.03,-0.0778159473393181,80.6868858149968
9.04,-0.07903642460964813,80.59592635120701
9.05,-0.07798428903177741,79.83236754966887
9.06,-0.07874182664784432,79.49690237128819
9.07,-0.08177197711211198,79.40510841700491
9.08,-0.08223491676637511,79.46686071352275
9.09,-0.08042524357243747,79.34419061098056
9.1,-0.07844722868604052,79.37506675923947
9.11,-0.07827888699358121,79.34419061098056
9.12,-0.07903642460964813,79.43598456526384
9.13,-0.08008856018751884,79.71053193762016
9.14,-0.07903642460964813,79.77144974364452
9.15,-0.07583793245292116,79.80232589190344
9.16,-0.07415451552832801,79.77144974364452
9.17,-0.07735300768505499,79.74140808587909
9.18,-0.08042524357243747,79.9850793099765
9.19,-0.08374999199850894,79.46686071352275
9.2,-0.08299245438244202,78.85601367229225
9.21,-0.07886808291718882,77.97145374919889
9.22,-0.07764760564685878,76.84238811151464
9.23,-0.0825295147281789,75.98786984618671
9.24,-0.08530715265375759,75.83515808587909
9.25,-0.08513881096129827,74.64517464217047
9.26,-0.0863592882316283,74.1870393612476
9.27,-0.08989446377327391,73.63794461653492
9.28,-0.09275627254508226,73.05797372356334
9.29,-0.08955778038835528,72.50887897885067
9.3,-0.08362373572916444,72.01986754966887
9.31,-0.08408667538342757,71.62348456526384
9.32,-0.08497046926883896,71.22710158085879
9.33,-0.08652762992408762,71.16618377483444
9.34,-0.08025690187997815,71.25714323862422
9.35,-0.05677323578190379,70.4026249732963
9.36,-0.01877009870921356,70.4026249732963
9.37,0.030385675488906257,70.0362836466567
9.38,0.05294346227845439,69.5789828562273
9.39,0.03341582595317392,69.24351767784661
9.4,-0.017086681784620417,68.78538239692374
9.41,-0.07491205314439492,68.72446459089937
9.42,-0.09414509150787159,68.38899941251869
9.43,-0.09519722708574231,68.29720545823542
9.44,-0.10024747785952175,68.11361754966887
9.45,-0.1057606682875643,67.53448114719077
9.46,-0.10942210009855438,67.47272885067294
9.47,-0.1104742356764251,67.4426871929075
9.48,-0.1361042583533557,67.25993377483444
9.49,-0.06439069736568777,67.16813982055116
9.5,0.5975288373843366,66.83267464217047
9.51,1.7776461869472455,66.7408806878872
9.52,1.9424527038649144,66.43545716727195
9.53,0.4661381464198417,66.40541550950651
9.54,-0.41963375387795604,66.03907418286691
9.55,-0.08008856018751884,65.73365066225165
9.56,0.02057977190315119,65.45910328989532
9.57,-0.09675438774099097,65.61181505020295
9.58,-0.09612310639426855,65.21459757530442
9.59,-0.07903642460964813,65.21459757530442
9.6,-0.0775213493775143,64.91000854518265
9.61,-0.07659547006898806,64.45187326425977
9.62,-0.07613253041472495,64.05549027985474
9.63,-0.07200815894947175,63.59735499893185
9.64,-0.06485363701995088,63.56647885067293
9.65,-0.05980338624617145,63.23101367229224
9.66,-0.05643655239698517,62.77371288186285
9.67,-0.05218592466238747,62.376495406964324
9.68,-0.0448630610404073,62.346453749198886
9.69,-0.03770853911088643,61.94923627430036
9.7,-0.028828514833657597,61.55285328989532
9.71,-0.016918340092161102,61.15563581499679
9.72,-0.0039560297727938894,61.064676351207005
9.73,0.009300878508377122,60.88108844264046
9.74,0.02121105324987362,60.728376682332836
9.75,0.033121227991370114,61.40014152958769
9.76,0.05248052262419128,65.09276196325571
9.77,0.08101443949604507,65.6727328562273
9.78,0.11350438614069276,65.52002109591967
9.79,0.1428379260517283,65.58093890194402
9.8,0.17044596361505587,72.11166150395215
9.81,0.1971281218698572,79.9850793099765
9.82,0.2085753569570906,88.10300283059175
9.83,0.18921606232426944,94.05375453962829
9.84,0.13551506242974812,98.84539895321512
9.85,0.06422235567322845,99.57724711600085
9.86,0.007491205314439493,99.60812326425977
9.87,-0.026387560292997537,99.82175283059175
9.88,-0.044568463078603494,99.60812326425977
9.89,-0.061023863516501485,98.8145228049562
9.9,-0.07920476630210745,98.14359244819482
9.91,-0.08757976550195834,97.01452681051057
9.92,-0.08332913776736064,93.81008331553087
9.93,-0.08147737915030819,91.12385841700491
9.94,-0.08210866049703061,88.83568548387096
9.95,-0.07764760564685878,87.61482589190344
9.96,-0.07276569656553866,87.4312379833369
9.97,-0.07508039483685423,87.12664895321512
9.98,-0.07491205314439492,87.09577280495621
9.99,-0.07049308371733792,87.00397885067294
