time_s,ECG1,ECG2,NIBP
0.0,-0.21454049019225202,-0.07488756989858511,103.24472166506982
0.01,-0.1437473853425353,-0.09341919923832644,102.69460904334983
0.02,-0.18667884744199223,-0.04596757339303395,102.14536137858224
0.03,-0.04398284484474973,-0.01468831401466151,101.50529323381369
0.04,-0.1257570583675248,-0.013546735205231858,100.75364564218685
0.05,-0.16693621589149366,-0.12877008970366463,99.99075361017896
0.06,-0.18142193371552812,-0.043075573742478834,99.27283933969532
0.07,-0.1263411598926875,-0.08938562077834168,98.58779343340251
0.08,-0.1756393286164176,-0.05696478259053959,97.92610136482422
0.09,-0.13854888176858746,-0.10327482962640243,97.36560925967557
0.1,-0.1872629489671549,-0.0546435723446993,96.882963280242
0.11,-0.11471753954195016,-0.06449920273277528,96.52400614500017
0.12,-0.1559551072184353,-0.025685523212167147,96.17629345013943
0.13,-0.13679657719309943,-0.08820598934193104,95.77235855337334
0.14,-0.19479785864175345,-0.016438734855786976,95.39091253736939
0.15,-0.16693621589149366,-0.07549641193028092,95.08731264708052
0.16,-0.21506618156489843,-0.004261894221870698,94.85204435603048
0.17,-0.1414109792418846,-0.06739120238333039,94.6946221906955
0.18,-0.13913298329375015,0.02237494466482116,94.59428718421827
0.19,-0.1037364308688918,-0.03611194300495796,94.45935389964545
0.2,-0.166352114366331,-0.008904314713551279,94.24570953240514
0.21,-0.11880625021808891,-0.03786236384608343,94.01044124135508
0.22,-0.1553710056932726,-0.03725352181438761,93.6739729868754
0.23,-0.10659852834218893,-0.06796199178804523,93.43783973887295
0.24,-0.16693621589149366,-0.07028320203388551,93.23630476896611
0.25,-0.12692526141785015,-0.0974908303252922,93.04514928248794
0.26,-0.1999963622157013,-0.0007991051666007557,92.86610319334322
0.27,0.13002099950121235,0.047832152115102375,92.74241434915146
0.28,0.8087469717402453,0.48962315136437734,92.5858571407689
0.29,2.2368167906104794,0.791837114847387,92.33847945238537
0.3,2.3151448051347945,0.7559534876043149,92.08072228057318
0.31,1.3377677230800837,0.1468450875196341,91.87832235371394
0.32,0.030840560528589453,-0.16811650600200662,91.68803182418816
0.33,-0.03872593111828562,-0.1154516702603187,91.49687633770999
0.34,-0.122310859369065,-0.039003942655513074,91.34031912932741
0.35,-0.13387606956728604,-0.10848803952279784,91.23911916589779
0.36,-0.19479785864175345,-0.036682732409672784,91.0929414409439
0.37,-0.13562837414277407,-0.08128041123139115,90.89140647103704
0.38,-0.1907091479656147,-0.04767994160717842,90.64402878265354
0.39,-0.16576801284116832,-0.0974908303252922,90.46498269350882
0.4,-0.15823310316656974,-0.039003942655513074,90.38627161084133
0.41,-0.10659852834218893,-0.05232236209885901,90.33004940893599
0.42,-0.1559551072184353,-0.016438734855786976,90.34129384931707
0.43,-0.04456694636991241,-0.008904314713551279,90.29631608779279
0.44,-0.11360774664414107,0.02351652347425081,90.16224776017235
0.45,-0.0915287089929918,-0.039003942655513074,90.01607003521845
0.46,-0.07237017896765593,0.035122574703452265,89.88113675064562
0.47,0.07494022567837172,0.07157699135123911,89.79204618454946
0.48,-0.05385416061999901,0.02119531322841052,89.71333510188198
0.49,0.05233549665457604,0.04204815281399215,89.64586845959558
0.5,0.037791368678025336,0.09707225142850133,89.6683573403577
0.51,0.17295246160066927,0.09300062034153557,90.06104779674273
0.52,0.20256640892641709,0.1642351380499458,91.58683186075854
0.53,0.28200421634854145,0.14338229846436418,96.38907286042735
0.54,0.3284402875989744,0.23832360278193016,104.27661530927098
0.55,0.42995713267224805,0.20243997553885812,112.8941814259317
0.56,0.29012322754830266,0.1590219281535504,120.55683506715397
0.57,0.28726113007500553,0.07911141149347482,125.98789977121024
0.58,0.15385234172784965,0.06925578110539883,128.71424408514326
0.59,0.10338596995379419,0.006735314975634941,129.91480433506047
0.6,-0.011506800045704778,0.02237494466482116,129.99351541772793
0.61,-0.008586292419891383,-0.030898733108562556,129.33095839219726
0.62,-0.05613215656813345,0.0015221050792395348,128.01881869542177
0.63,-0.08107329169257985,-0.05928599283637988,125.87545536739955
0.64,-0.1686885204669817,-0.07317520168444062,122.68895395479511
0.65,-0.1553710056932726,-0.12180645896614377,118.6496049871342
0.66,-0.16985672351730707,-0.059856782241094704,114.24005444385041
0.67,-0.17044082504246974,-0.13858766746475965,110.18946103580843
0.68,-0.16752031741665635,-0.040754363496638545,106.99171518282293
0.69,-0.10490463391921716,-0.06739120238333039,104.90543901365845
0.7,-0.15764900164140708,-0.04189594230606819,103.70487876374125
0.71,-0.09731131409210232,-0.08299277944553562,102.98609953630523
0.72,-0.1623218138427085,-0.019330734506342092,102.54929627534833
0.73,-0.09678562271945591,-0.08820598934193104,102.32440746772694
0.74,-0.19012504644045203,-0.06506999213749011,102.36938522925122
0.75,-0.10315232934372912,-0.07374599108915546,102.52680739458619
0.76,-0.14024277619155923,-0.019901523911056915,102.71709792411197
0.77,-0.11068723901832768,-0.06910357059747488,102.70585348373089
0.78,-0.15764900164140708,-0.06621157094691976,102.47058519268084
0.79,-0.0915287089929918,-0.06853278119276004,102.0104280940094
0.8,-0.12926166751850088,-0.008333525308836453,101.38246934657433
0.81,-0.12984576904366354,-0.09516962007945191,100.75364564218685
0.82,-0.19421375711659078,-0.062177992486934994,99.81084256408185
0.83,-0.11763804716776356,-0.08010077979498051,99.18288381664678
0.84,-0.15764900164140708,-0.02165194475218238,99.11541717436036
0.85,-0.1872629489671549,-0.1351248784094897,99.28408378007639
0.86,-0.15128229501713386,-0.04767994160717842,99.65428535569927
0.87,-0.07821119421928273,-0.051180783289429356,100.0132424909411
0.88,-0.12692526141785015,-0.013546735205231858,100.3721996261829
0.89,-0.14608379144318603,-0.12180645896614377,100.84360116523541
0.9,-0.17622343014158026,-0.0395747320602279,101.61773763762439
0.91,-0.1228365507417114,-0.08360162147723145,102.42560743115656
0.92,-0.18551064439166687,-0.05810636139996924,102.98609953630523
0.93,-0.13679657719309943,-0.0824219900408208,103.18849946316448
0.94,-0.13854888176858746,-0.011225524959391569,103.19974390354554
0.95,-0.10023182171791573,-0.05810636139996924,103.12103282087806
0.96,-0.21740258766554912,-0.07720878014442539,102.87452008944693
0.97,-0.09620152119429323,-0.05810636139996924,102.29067414658374
0.98,-0.20694717036513718,-0.07431678049387028,101.58400431648117
0.99,-0.11302364511897839,-0.08360162147723145,100.98891393323692
1.0,-0.1959660616920788,-0.06331957129636465,100.23726634161008
1.01,-0.15361870111778458,-0.11313046001447842,99.34030598198174
1.02,-0.16115361079238313,-0.03554115360024314,98.52119174806849
1.03,-0.13270786651696068,-0.05175157269414418,97.91485692444316
1.04,-0.18492654286650417,0.004984894134509477,97.42096650462851
1.05,-0.17739163319190562,-0.04535873136133813,96.86047439947986
1.06,-0.22902620801628645,-0.022222734156897208,96.2991173373788
1.07,-0.1228365507417114,-0.05696478259053959,95.88393800023164
1.08,-0.16985672351730707,0.013090103681459998,95.51373642460875
1.09,-0.14608379144318603,-0.040754363496638545,95.15477928936694
1.1,-0.15764900164140708,-0.011796314364106395,94.82955547526834
1.11,-0.06833987844403344,-0.03379073275911767,94.53806498231293
1.12,-0.19479785864175345,-0.06739120238333039,94.33566505545369
1.13,-0.16693621589149366,-0.09052719958777132,94.20073177088086
1.14,-0.1594013062168951,-0.05696478259053959,94.05541900287936
1.15,-0.1466678929683487,-0.09806161973000703,93.80804131449584
1.16,-0.22552159886531037,-0.008333525308836453,93.52779526192151
1.17,0.3684512420726179,0.1920135557460673,93.34874917277679
1.18,1.2443698892065713,0.5741380358891525,93.25879364972825
1.19,2.7066680574513384,0.8427895823749304,93.07888260363114
1.2,2.092426893590265,0.48962315136437734,92.77614767029468
1.21,0.6520909426916148,-0.006012315062996162,92.50714605810141
1.22,-0.04106233721893634,-0.18664813534174796,92.40594609467179
1.23,-0.07704299116895737,-0.13858766746475965,92.2935016908611
1.24,-0.15478690416810995,-0.048859573043589066,92.0020111979057
1.25,-0.1344601710924487,-0.07663799073971057,91.6767873838071
1.26,-0.1506981934919712,-0.004832683626585523,91.48563189732891
1.27,-0.19421375711659078,-0.11313046001447842,91.40692081466143
1.28,-0.236561117690885,-0.07374599108915546,91.34031912932741
1.29,-0.19479785864175345,-0.11427203882390807,91.16040808323031
1.3,-0.19246145254110275,-0.03497036419552831,90.85767314989384
1.31,-0.1437473853425353,-0.07142478084331516,90.70025098455888
1.32,-0.12692526141785015,0.030480154211771682,90.6215399018914
1.33,-0.05846856266878417,-0.012937893173536046,90.5099604550331
1.34,-0.16459980979084296,-0.023935102371041683,90.37502717046027
1.35,-0.08048919016741717,-0.028577522862722263,90.17349220055341
1.36,-0.11705394564260088,0.0061645255709201156,89.97109227369418
1.37,-0.034695630594663136,-0.013546735205231858,89.85864786988348
1.38,-0.03235922449401242,0.06693457085955853,89.79204618454946
1.39,0.0535036997049014,0.03219252242591616,89.76955730378732
1.4,0.10397007147895687,0.16769792710521575,89.76955730378732
1.41,0.1834078789010812,0.11328267052240237,90.38627161084133
1.42,0.1474272249510602,0.1063190397848815,93.0226604017258
1.43,0.2669343969993443,0.12020824863294226,99.40690766731576
1.44,0.28142011482337875,0.18215792535799133,107.5080944833997
1.45,0.36150043392318204,0.14802471895604474,115.74421458405648
1.46,0.3040832539996907,0.16712713770050092,122.40870790222077
1.47,0.25706308122409505,0.11731624898238714,126.69456960131279
1.48,0.10163366537830615,0.06636378145484371,128.78171072742967
1.49,0.002453226405683252,-0.0320783645449732,129.51086943829435
1.5,-0.06541937081822005,-0.004261894221870698,129.29809002800644
1.51,-0.034111529069500456,-0.04189594230606819,128.4002647114257
1.52,-0.1686885204669817,-0.04653836279774878,126.90821396855311
1.53,-0.08107329169257985,-0.06853278119276004,124.50709346871871
1.54,-0.1779757347170683,-0.06449920273277528,121.15192545039822
1.55,-0.18492654286650417,-0.13394524697307905,117.0113765193077
1.56,-0.20583737746732808,-0.06160720308222017,112.7480037009778
1.57,-0.12114265631873963,-0.08299277944553562,109.02263410703445
1.58,-0.16056950926722047,-0.038433153250798255,106.28504535272036
1.59,-0.15128229501713386,-0.10734646071336819,104.5239929976545
1.6,-0.20350097136667739,-0.07431678049387028,103.4687455157388
1.61,-0.13738067871826212,-0.08299277944553562,102.91949785097121
1.62,-0.18142193371552812,-0.07142478084331516,102.60465352030128
1.63,-0.15881720469173244,-0.10905882892751266,102.42560743115656
1.64,-0.17972803929255635,-0.04421715255190848,102.56054071572939
1.65,-0.1350442726176114,-0.08592283172307173,102.69460904334983
1.66,-0.13153966346663531,-0.013546735205231858,102.87452008944693
1.67,-0.16985672351730707,-0.11891445931558865,102.78456456639837
1.68,-0.15881720469173244,-0.04943036244830389,102.45934075229977
1.69,-0.12692526141785015,-0.0899564101830565,101.85300592867443
1.7,-0.17855983624223098,-0.060998361050524356,101.16882497933402
1.71,-0.16459980979084296,-0.10038282997584731,100.47339958961253
1.72,-0.16056950926722047,-0.04018357409192372,100.14817577551392
1.73,-0.1263411598926875,-0.06796199178804523,100.3721996261829
1.74,-0.1756393286164176,-0.0546435723446993,100.5183773511368
1.75,-0.10256822781856643,-0.04535873136133813,100.45091070885039
1.76,-0.20694717036513718,-0.06910357059747488,100.50713291075573
1.77,-0.15478690416810995,-0.08592283172307173,100.67493455951937
1.78,-0.22844210649112376,-0.0974908303252922,101.1013583370476
1.79,-0.14952999044164583,-0.09113604161946715,101.71893760105401
1.8,-0.18667884744199223,-0.05057194125773354,102.40311855039442
1.81,-0.12342065226687408,-0.06621157094691976,103.04232173821057
1.82,-0.1779757347170683,-0.040754363496638545,103.55870103878735
1.83,-0.14082687771672192,-0.07895920098555086,103.78272488945635
1.84,-0.2209071968165252,-0.08474320028666109,103.69363432336019
1.85,-0.13913298329375015,-0.08881483137362685,103.37965494964264
1.86,-0.17972803929255635,-0.05175157269414418,102.91949785097121
1.87,-0.08977640441750377,-0.025114733807452324,102.42560743115656
1.88,-0.16693621589149366,-0.051180783289429356,101.81927260753123
1.89,-0.1965501632172415,-0.11716403847446319,101.04513613514226
1.9,-0.1878470504923176,-0.03611194300495796,100.13693133513284
1.91,-0.17219312961795777,-0.10848803952279784,99.32906154160067
1.92,-0.23077851259177448,-0.10270404022168761,98.64401563530785
1.93,-0.11939035174325159,-0.051180783289429356,98.0835235301592
1.94,-0.16459980979084296,-0.03725352181438761,97.52216646805813
1.95,-0.14549968991802334,-0.06506999213749011,96.92794104176626
1.96,-0.21506618156489843,-0.04189594230606819,96.42280618157055
1.97,-0.19824405764021327,-0.07895920098555086,96.0413601655666
1.98,-0.236561117690885,-0.026865154648577787,95.76111411299227
1.99,-0.1599854077420578,-0.06564078154220493,95.54746974575195
2.0,-0.16056950926722047,0.004984894134509477,95.34593477584511
2.01,-0.0915287089929918,0.009627314626190058,95.06482376631838
2.02,-0.15706490011624438,-0.007153893872425813,94.79582215412512
2.03,-0.13679657719309943,-0.06042757164580953,94.52682054193185
2.04,-0.1501140919668085,-0.021043102720486567,94.33566505545369
2.05,-0.18901525354264292,-0.13569566781420453,94.19035228745219
2.06,-0.21045177951611327,-0.08417241088194627,94.04417456249828
2.07,-0.19187735101594006,-0.1096296183322275,93.9317301586876
2.08,-0.236561117690885,-0.01004589352298093,93.79766183106716
2.09,0.32493567844799837,0.17291113700161115,93.58401746382685
2.1,1.2333303703809968,0.6615829726914637,93.37123805353893
2.11,2.664904798402207,0.9267717301219717,93.14634924591756
2.12,2.053525732014431,0.4838391520632671,92.9448142760107
2.13,0.6839828859654972,0.011377735467315521,92.80988099143788
2.14,-0.03820023974563921,-0.16408292754202183,92.64121438572185
2.15,-0.07996349879477076,-0.12412766921198405,92.45092385619607
2.16,-0.1686885204669817,-0.062177992486934994,92.23727948895575
2.17,-0.16927262199214438,-0.10616682927695754,91.96827787676249
2.18,-0.19304555406626542,-0.04421715255190848,91.7442540260935
2.19,-0.14952999044164583,-0.04535873136133813,91.62056518190175
2.2,-0.18954094491528936,-0.051180783289429356,91.48563189732891
2.21,-0.20116456526602666,-0.11138003917335296,91.44065413580465
2.22,-0.1907091479656147,-0.06449920273277528,91.41816525504251
2.23,-0.15186639654229656,-0.08820598934193104,91.26160804665993
2.24,-0.17219312961795777,-0.0395747320602279,91.03671923903855
2.25,-0.11997445326841427,-0.05407278293998447,90.8014509479885
2.26,-0.07937939726960808,0.029909364807056856,90.61029546151032
2.27,-0.03644793517015117,0.018303313577855404,90.49871601465203
2.28,-0.1350442726176114,-0.017580313665216625,90.44249381274668
2.29,-0.04106233721893634,-0.003120315412441046,90.3637827300792
2.3,-0.0022195857956181803,0.07911141149347482,90.26258276664959
2.31,0.036097474255053566,0.05247457260678296,90.17349220055341
2.32,0.01927535033036841,0.08086183233460029,90.19598108131555
2.33,0.1712585671776975,0.11442424933183203,90.8689175902749
2.34,0.20256640892641709,0.16191392780410552,93.53903970230257
2.35,0.2884293331253309,0.16712713770050092,99.95702028903575
2.36,0.28142011482337875,0.19779755504717753,108.14816262816824
2.37,0.3075294529981505,0.12774266877517795,116.33844001034835
2.38,0.2791421188752443,0.1514875080113147,122.9804444477505
2.39,0.22575523947537546,0.07043541254180948,127.24468222303278
2.4,0.0975449547021674,0.06579299205012888,129.2418678261011
2.41,0.062206812429825314,0.03162173302120133,130.02724873887115
2.42,-0.05327005909483633,-0.01004589352298093,129.7911154908687
2.43,-0.039310032643448296,-0.025685523212167147,128.74797740628645
2.44,-0.13679657719309943,-0.042466731710783016,127.00854897503034
2.45,-0.1472519944935114,-0.0824219900408208,124.23722689957305
2.46,-0.1999963622157013,-0.09113604161946715,120.50147782220101
2.47,-0.15245049806745922,-0.08010077979498051,116.20350672577553
2.48,-0.1837583398161788,-0.05057194125773354,111.9851116689699
2.49,-0.20466917441700275,-0.11716403847446319,108.3834309192183
2.5,-0.1965501632172415,-0.06389036070107947,105.81364381366787
2.51,-0.17680753166674296,-0.11252161798278261,104.16503586241268
2.52,-0.17044082504246974,-0.0546435723446993,103.22223278430768
2.53,-0.13387606956728604,-0.08649362112778657,102.70585348373089
2.54,-0.1629059153678712,-0.047109152202463596,102.40311855039442
2.55,-0.14024277619155923,-0.06739120238333039,102.24569638505946
2.56,-0.15478690416810995,-0.04132515290135337,102.17909469972544
2.57,-0.12400475379203676,-0.04364636314719366,102.13411693820116
2.58,-0.19012504644045203,-0.08592283172307173,102.34689634848908
2.59,-0.12750936294301282,-0.08592283172307173,102.34689634848908
2.6,-0.19421375711659078,-0.07549641193028092,101.96545033248513
2.61,-0.1437473853425353,-0.07720878014442539,101.25878050238256
2.62,-0.1263411598926875,-0.017580313665216625,100.6299567979951
2.63,-0.13042987056882624,-0.06853278119276004,100.09195357360858
2.64,-0.18609474591682953,-0.048859573043589066,99.7554853191289
2.65,-0.1477776858661578,-0.09170683102418196,99.64304091531821
2.66,-0.1553710056932726,-0.025114733807452324,99.69926311722355
2.67,-0.15881720469173244,-0.10502525046752789,99.83333144484399
2.68,-0.18609474591682953,-0.05810636139996924,100.14817577551392
2.69,-0.1344601710924487,-0.08592283172307173,100.54086623189895
2.7,-0.12867756599333818,-0.04132515290135337,101.04513613514226
2.71,-0.14894588891648317,-0.07028320203388551,101.76391536257827
2.72,-0.1629059153678712,-0.06621157094691976,102.57178515611047
2.73,-0.166352114366331,-0.12294803777557342,103.13227726125912
2.74,-0.19304555406626542,-0.0824219900408208,103.4687455157388
2.75,-0.11530164106711284,-0.06739120238333039,103.63741212145483
2.76,-0.20466917441700275,-0.08128041123139115,103.49123439650094
2.77,-0.1263411598926875,-0.055785151154128944,103.12103282087806
2.78,-0.1414109792418846,-0.018759945101627266,102.68336460296877
2.79,-0.16927262199214438,-0.10038282997584731,102.03291697477154
2.8,-0.13913298329375015,-0.010654735554676742,101.20255830047722
2.81,-0.17972803929255635,-0.12123566956142894,100.3384663050397
2.82,-0.22207539986685057,-0.07720878014442539,99.54184095188859
2.83,-0.20116456526602666,-0.0824219900408208,98.80143780064282
2.84,-0.20694717036513718,-0.04653836279774878,98.1172568513024
2.85,-0.16115361079238313,-0.025685523212167147,97.54465534882027
2.86,-0.12984576904366354,0.004984894134509477,97.05076492900564
2.87,-0.11243954359381571,0.013090103681459998,96.53525058538125
2.88,-0.09906361866759036,0.030480154211771682,96.12007124823408
2.89,-0.17739163319190562,-0.08531398969137592,95.81647135794522
2.9,-0.18843115201748026,-0.07488756989858511,95.45751422270341
2.91,-0.17855983624223098,-0.09692004092057738,95.15477928936694
2.92,-0.18609474591682953,-0.07663799073971057,94.93075543869796
2.93,-0.11705394564260088,-0.06621157094691976,94.72835551183871
2.94,-0.17622343014158026,-0.055785151154128944,94.50433166116973
2.95,-0.1472519944935114,0.008485735816760405,94.34690949583477
2.96,0.34000549779719547,0.23429002432194537,94.23446509202407
2.97,1.2628859075542282,0.5231855683616091,94.12288564516577
2.98,2.635349261228975,0.834113583423265,93.8979968375444
2.99,2.0367036080897454,0.3998570043162258,93.66272854649434
3.0,0.5384247858949576,-0.021043102720486567,93.53903970230257
3.01,-0.013784795993839225,-0.18607734593703312,93.38248249392001
3.02,-0.07009218301952148,-0.059856782241094704,93.10137148439328
3.03,-0.1553710056932726,-0.09574040948416673,92.8773476337243
3.04,-0.22265950139201324,-0.08820598934193104,92.79863655105682
3.05,-0.18954094491528936,-0.10905882892751266,92.68619214724612
3.06,-0.15420280264294728,-0.038433153250798255,92.4734127369582
3.07,-0.1843424413413415,-0.08938562077834168,92.33847945238537
3.08,-0.2122040840916013,-0.07317520168444062,92.28225725048003
3.09,-0.15128229501713386,-0.03497036419552831,92.13694448247853
3.1,-0.13679657719309943,-0.010654735554676742,91.90081123447608
3.11,-0.14257918229220995,-0.06971241262917069,91.72176514533136
3.12,-0.1559551072184353,-0.018759945101627266,91.64305406266388
3.13,-0.08691430694420664,-0.005441525658281337,91.49687633770999
3.14,-0.122310859369065,0.007306104380349766,91.34031912932741
3.15,-0.06425116776789469,0.0032725259203649996,91.26160804665993
3.16,-0.05963676571910953,0.0333721538623268,91.07045256018176
3.17,0.022137447803665534,0.05711699309846354,90.79020650760742
3.18,0.058702203278849244,0.13759829916325395,90.64402878265354
3.19,0.12365429287693915,0.12077903803765708,90.64402878265354
3.2,0.14164461985194968,0.13931066737739842,90.89140647103704
3.21,0.2083490140255276,0.12252945887878254,92.23727948895575
3.22,0.23737885982611276,0.16712713770050092,96.31036177775987
3.23,0.2762216112494309,0.1694483479463412,103.69363432336019
3.24,0.3290243891241371,0.21865039463275915,111.55868789144168
3.25,0.29596424279992944,0.13295587867157335,119.14349540694884
3.26,0.1839919804262439,0.11267382849070656,124.73111731938769
3.27,0.13294150712702574,0.06754341289125436,127.99632981465962
3.28,-0.015537100569327262,-0.02047231331577174,129.25311226648216
3.29,-0.02891302549555261,-0.014117524609946685,129.44340279600794
3.3,-0.13854888176858746,-0.05000115185301871,128.84917736971607
3.31,-0.11939035174325159,-0.05810636139996924,127.34501722951002
3.32,-0.16576801284116832,-0.07606720133499574,125.00011893158096
3.33,-0.15245049806745922,-0.08820598934193104,121.668304750975
3.34,-0.1437473853425353,-0.059856782241094704,117.69642242560052
3.35,-0.1623218138427085,-0.0974908303252922,113.331849643841
3.36,-0.1872629489671549,-0.06331957129636465,109.46030232494374
3.37,-0.1750552270912549,-0.07952999039026569,106.53242304110388
3.38,-0.19304555406626542,-0.07720878014442539,104.5239929976545
3.39,-0.15823310316656974,-0.10791725011808301,103.31218830735622
3.4,-0.15478690416810995,-0.06910357059747488,102.60465352030128
3.41,-0.11939035174325159,-0.053463940908288654,102.1228724978201
3.42,-0.16115361079238313,-0.05289315150357383,101.88673924981765
3.43,-0.11997445326841427,-0.05810636139996924,101.70769316067293
3.44,-0.16115361079238313,-0.05810636139996924,101.75267092219721
3.45,-0.10256822781856643,-0.036682732409672784,101.60649319724331
3.46,-0.17739163319190562,-0.05175157269414418,101.25878050238256
3.47,-0.08977640441750377,-0.027435944053292614,100.73115676142471
3.48,-0.132123764991798,-0.05000115185301871,100.18190909665712
3.49,-0.11471753954195016,-0.06160720308222017,99.62055203455607
3.5,-0.20525327594216541,-0.0876351999372162,99.29532822045746
3.51,-0.1559551072184353,-0.0824219900408208,99.21661713778998
3.52,-0.14082687771672192,-0.04018357409192372,99.55308539226965
3.53,-0.05268595756967365,0.019482945014266045,100.3047329838965
3.54,-0.17914393776739365,-0.07720878014442539,100.89982336714075
3.55,-0.1629059153678712,-0.09516962007945191,101.22504718123936
3.56,-0.13738067871826212,-0.011796314364106395,101.66271539914867
3.57,-0.16459980979084296,-0.08592283172307173,102.47058519268084
3.58,-0.21915489224103718,-0.10441640843583208,103.42376775421452
3.59,-0.1506981934919712,-0.05289315150357383,104.25412642850884
3.6,-0.1559551072184353,-0.05289315150357383,104.86046125213417
3.61,-0.1594013062168951,-0.06853278119276004,105.03950734127889
3.62,-0.122310859369065,-0.026865154648577787,104.91668345403951
3.63,-0.13095556194147265,-0.05232236209885901,104.5577263187977
3.64,-0.1872629489671549,-0.07085399143860034,104.01885813745879
3.65,-0.17622343014158026,-0.08820598934193104,103.31218830735622
3.66,-0.16056950926722047,-0.07431678049387028,102.50431851382405
3.67,-0.13679657719309943,-0.05289315150357383,101.61773763762439
3.68,-0.1727188209906042,-0.06389036070107947,100.71991232104365
3.69,-0.13095556194147265,-0.01582989282409116,99.8670647659872
3.7,-0.1959660616920788,-0.023364312966326857,99.08168385321716
3.71,-0.19538196016691614,-0.04364636314719366,98.52119174806849
3.72,-0.1779757347170683,0.0009513156745247092,98.06103464939706
3.73,-0.15881720469173244,-0.04943036244830389,97.52216646805813
3.74,-0.1623218138427085,-0.025685523212167147,97.0620093693867
3.75,-0.12809346446817552,-0.019330734506342092,96.65807447262061
3.76,-0.10835083291767696,0.013698945713155813,96.27662845661666
3.77,-0.12517295684236213,-0.04421715255190848,95.99638240404232
3.78,-0.1965501632172415,-0.08185120063610597,95.8277157983263
3.79,-0.14257918229220995,-0.06971241262917069,95.69364747070586
3.8,-0.17102492656763243,-0.04653836279774878,95.59244750727623
3.81,-0.23019441106661181,-0.07549641193028092,95.41253646117913
3.82,0.08247513535297028,0.06465141324069924,95.24473481241549
3.83,0.8162818814148439,0.4589146813907197,95.07606820669946
3.84,2.188686824937075,0.7843407473321322,94.90826655793582
3.85,2.376066594209262,0.7374218582645736,94.8070665945062
3.86,1.3487488317531422,0.14859550836075958,94.64964442917123
3.87,0.021553346278502857,-0.20864255373675922,94.50433166116973
3.88,-0.016705303619652622,-0.0546435723446993,94.38064281697797
3.89,-0.17330292251576687,-0.12412766921198405,94.15661896630898
3.9,-0.1872629489671549,-0.06621157094691976,93.9317301586876
3.91,-0.09906361866759036,-0.022222734156897208,93.79766183106716
3.92,-0.18200603524069078,-0.08938562077834168,93.61775078497006
3.93,-0.1999963622157013,-0.10384561903111726,93.47157306001617
3.94,-0.16927262199214438,-0.05175157269414418,93.28128253049039
3.95,-0.16459980979084296,-0.05057194125773354,93.03390484210686
3.96,-0.11185544206865304,-0.0002283157618859302,92.93356983562964
3.97,-0.12517295684236213,-0.03264915394968802,92.88859207410536
3.98,-0.1501140919668085,-0.01582989282409116,92.71992546838933
3.99,-0.1037364308688918,-0.02047231331577174,92.55212381962569
4.0,-0.11822214869292624,-0.017580313665216625,92.39470165429071
4.01,-0.08107329169257985,-0.02279352356161203,92.23727948895575
4.02,-0.013784795993839225,0.06522220264541406,92.0694778401921
4.03,0.0047312223538177,0.039156153163437034,91.889566794095
4.04,0.01115633913060717,0.05304536201149779,91.75549846647458
4.05,0.06682121447861049,0.08721662104042534,91.77798734723672
4.06,0.1317733040767004,0.11153224968127691,92.23727948895575
4.07,0.18977458552535442,0.14281150905964934,94.38064281697797
4.08,0.28200421634854145,0.18276676738968714,99.84457588522505
4.09,0.34000549779719547,0.20126034410244747,107.92327382054687
4.1,0.32207358097470123,0.17348192640632598,116.15852896425125
4.11,0.30525145705001605,0.15380871825715497,123.45184598680301
4.12,0.18165557432559318,0.06693457085955853,128.0413075761839
4.13,0.17879347685229605,0.09300062034153557,130.48740583754258
4.14,0.023889752379153573,0.0009513156745247092,131.31776451183688
4.15,-0.0010513827452928223,-0.017580313665216625,131.32814399526558
4.16,-0.03177512296884974,0.03105094361648651,130.47616139716152
4.17,-0.11763804716776356,-0.06506999213749011,128.8041996081918
4.18,-0.1501140919668085,-0.06160720308222017,126.42556798911954
4.19,-0.11588574259227552,-0.03321994335440284,123.01417776889372
4.2,-0.16985672351730707,-0.07549641193028092,118.98607324161388
4.21,-0.21278818561676396,-0.1299116685130943,114.7564337444272
4.22,-0.1686885204669817,-0.08128041123139115,110.95321802476873
4.23,-0.1164698441174382,-0.0546435723446993,108.2372531942644
4.24,-0.1629059153678712,-0.06042757164580953,106.58778028605684
4.25,-0.1501140919668085,-0.06971241262917069,105.76953100909597
4.26,-0.15478690416810995,-0.043075573742478834,105.4321977976639
4.27,-0.06892397996919612,0.00441410472979465,105.26439614890026
4.28,-0.16810441894181902,-0.06853278119276004,105.29812947004348
4.29,-0.1414109792418846,-0.06506999213749011,105.4321977976639
4.3,-0.1872629489671549,-0.07549641193028092,105.85862157519213
4.31,-0.14433148686769798,-0.0824219900408208,106.20633427005288
4.32,-0.1716090280927951,-0.07199557024803,106.02728818090817
4.33,-0.08457790084355593,-0.012937893173536046,104.97290565594487
4.34,-0.10659852834218893,-0.0170095242605018,103.99636925669665
4.35,-0.1344601710924487,-0.051180783289429356,103.26721054583196
4.36,-0.13095556194147265,-0.047109152202463596,102.67212016258769
4.37,-0.17388702404092954,-0.08649362112778657,102.18947418315412
4.38,-0.18901525354264292,-0.08706441053250139,101.85300592867443
4.39,-0.17622343014158026,-0.07663799073971057,101.70769316067293
4.4,-0.15764900164140708,-0.05000115185301871,101.70769316067293
4.41,-0.12342065226687408,-0.025685523212167147,101.93171701134192
4.42,-0.10951903596800232,-0.03321994335440284,102.40311855039442
4.43,-0.16693621589149366,-0.07952999039026569,103.04232173821057
4.44,-0.10776673139251428,-0.003691104817155872,103.76110096564659
4.45,-0.1686885204669817,-0.09459883067473708,104.51274855727343
4.46,-0.18492654286650417,-0.10038282997584731,105.219418387376
4.47,-0.12809346446817552,-0.05000115185301871,105.74704212833383
4.48,-0.132123764991798,-0.025114733807452324,106.10599926357565
4.49,-0.16752031741665635,-0.08531398969137592,106.13973258471886
4.5,-0.1629059153678712,-0.05639399318582476,105.82488825404893
4.51,-0.09906361866759036,-0.02165194475218238,105.3206183508056
4.52,-0.12055855479357695,-0.05639399318582476,104.6355724445128
4.53,-0.18551064439166687,-0.11080924976863812,103.80521377021847
4.54,-0.1553710056932726,-0.05928599283637988,102.89700897020907
4.55,-0.14024277619155923,-0.06678236035163458,102.0104280940094
4.56,-0.14836178739132047,-0.04943036244830389,101.16882497933402
4.57,-0.1501140919668085,-0.07952999039026569,100.40593294732611
4.58,-0.17855983624223098,-0.06853278119276004,99.65428535569927
4.59,-0.17972803929255635,-0.05639399318582476,98.95885996597778
4.6,-0.16349001689303386,0.0026636838886691856,98.35252514235245
4.61,-0.11997445326841427,0.04261894221870697,97.83614584177568
4.62,-0.15128229501713386,-0.03497036419552831,97.40972206424745
4.63,-0.1559551072184353,-0.007153893872425813,97.05076492900564
4.64,-0.09847951714242768,0.010768893435619709,96.66931891300167
4.65,-0.12692526141785015,-0.02279352356161203,96.31036177775987
4.66,-0.13965867466639656,-0.04364636314719366,96.0413601655666
4.67,-0.14433148686769798,-0.07781762217612122,95.85020467908844
4.68,-0.18142193371552812,-0.10673761868167238,95.67115858994372
4.69,-0.1623218138427085,-0.05696478259053959,95.45751422270341
4.7,-0.18200603524069078,-0.06449920273277528,95.30095701432083
4.71,0.05291959817973872,0.04901178355151302,95.10980152784266
4.72,0.7333394648417435,0.48033831038101615,94.89702211755474
4.73,1.987989540891178,0.7432058575656838,94.70586663107657
4.74,2.4160775486829054,0.7802691162451665,94.50433166116973
4.75,1.5976344916249596,0.27424528265198317,94.31317617469155
4.76,0.11670348472750328,-0.12066488015671412,94.15661896630898
4.77,-0.0172894051448153,-0.08706441053250139,93.99919680097402
4.78,-0.12867756599333818,-0.0726044122797258,93.7864173906861
4.79,-0.16810441894181902,-0.08592283172307173,93.58401746382685
4.8,-0.16810441894181902,-0.06971241262917069,93.41535085811083
4.81,-0.20694717036513718,-0.09459883067473708,93.29252697087145
4.82,-0.16518391131600563,-0.06910357059747488,93.13510480553649
4.83,-0.14491558839286067,-0.053463940908288654,92.96730315677284
4.84,-0.11997445326841427,-0.03321994335440284,92.79863655105682
4.85,-0.12809346446817552,-0.023364312966326857,92.62996994534078
4.86,-0.0787952957444454,0.05361615141621261,92.50714605810141
4.87,-0.12926166751850088,-0.051180783289429356,92.39470165429071
4.88,-0.1437473853425353,-0.060998361050524356,92.30474613124217
4.89,-0.10140002476824109,-0.009475104118266103,92.17067780362173
4.9,-0.039310032643448296,0.01541131392730029,92.0020111979057
4.91,-0.043398743319587055,0.010198104030904882,91.8558334729518
4.92,-0.030022818393361704,0.0333721538623268,91.65429850304496
4.93,0.04188007935416409,0.09010862069098045,91.48563189732891
4.94,0.09696085317700472,0.11267382849070656,91.46314301656678
4.95,0.17990326975010515,0.18855076669079737,91.86707791333288
4.96,0.23270604762481134,0.15552108647129945,93.62899522535113
4.97,0.22283473184956204,0.11849588041879777,98.66650451606999
4.98,0.2518645776501472,0.11556582814126168,106.29628979310144
4.99,0.3266879830234864,0.1717315055652005,114.63274490023544
5.0,0.3086976560484759,0.13470629951269883,121.84735084011972
5.01,0.3272720845486491,0.17812434689800655,126.73954736283707
5.02,0.18223967585075587,0.07679020124763453,129.12942342229042
5.03,0.07260381957772101,0.014269735117870637,130.19505038763478
5.04,0.08013872925231956,0.06811420229596918,130.1613170664916
5.05,-0.0631413748700856,-0.059856782241094704,129.39842503448367
5.06,-0.13095556194147265,-0.09631119888888155,128.0750408973271
5.07,-0.16407411841819655,-0.11484282822862289,126.0778552942588
5.08,-0.08977640441750377,-0.05289315150357383,123.25031101689616
5.09,-0.12172675784390231,-0.07085399143860034,119.53618586333387
5.1,-0.13913298329375015,-0.06389036070107947,115.45185913414869
5.11,-0.14952999044164583,-0.05639399318582476,111.7273544971577
5.12,-0.12114265631873963,-0.0546435723446993,108.89981021979507
5.13,-0.1629059153678712,-0.0974908303252922,107.12664846739575
5.14,-0.16927262199214438,-0.10734646071336819,106.03853262128924
5.15,-0.16693621589149366,-0.0899564101830565,105.45468667842604
5.16,-0.1379647802434248,-0.07142478084331516,105.20817394699492
5.17,-0.11939035174325159,-0.0395747320602279,105.29812947004348
5.18,-0.09620152119429323,-0.047109152202463596,105.66833104566635
5.19,-0.03644793517015117,0.024087312878965636,106.0160437405271
5.2,-0.11360774664414107,-0.06621157094691976,106.40873419691212
5.21,-0.13854888176858746,-0.08474320028666109,106.4874452795796
5.22,-0.12984576904366354,-0.09574040948416673,106.18384538929074
5.23,-0.16115361079238313,-0.08474320028666109,105.42095335728284
5.24,-0.09731131409210232,-0.06678236035163458,104.46777079574916
5.25,-0.12926166751850088,-0.0546435723446993,103.63741212145483
5.26,-0.08399379931839325,-0.022222734156897208,103.07605505935378
5.27,-0.09731131409210232,-0.022222734156897208,102.79580900677945
5.28,-0.10140002476824109,-0.06331957129636465,102.72834236449303
5.29,-0.14199508076704728,-0.07781762217612122,102.75083124525517
5.3,-0.1506981934919712,-0.0974908303252922,102.9973439766863
5.31,-0.13965867466639656,-0.06910357059747488,103.4687455157388
5.32,-0.10601442681702625,-0.06796199178804523,104.13130254126948
5.33,-0.14433148686769798,-0.06853278119276004,104.97290565594487
5.34,-0.08749840846936932,-0.014117524609946685,105.86986601557321
5.35,-0.15303459959262192,-0.0824219900408208,106.71146913024859
5.36,-0.08224149474290521,-0.03321994335440284,107.37316119882688
5.37,-0.13854888176858746,-0.05696478259053959,107.72173885064001
5.38,-0.17914393776739365,-0.1102384603639233,107.59805000644826
5.39,-0.15303459959262192,-0.07374599108915546,107.13789290777682
5.4,-0.11360774664414107,-0.07781762217612122,106.49868971996068
5.41,-0.07126038606984685,-0.013546735205231858,105.66833104566635
5.42,-0.0851620023687186,-0.01004589352298093,104.61308356375066
5.43,-0.166352114366331,-0.05810636139996924,103.47998995611987
5.44,-0.14608379144318603,-0.03032794370384773,102.4480963119187
5.45,-0.18954094491528936,-0.059856782241094704,101.56151543571904
5.46,-0.1559551072184353,-0.016438734855786976,100.82111228447327
5.47,-0.08340969779323057,0.014840524522585464,100.15942021589498
5.48,-0.13738067871826212,-0.04653836279774878,99.58681871341287
5.49,-0.14257918229220995,-0.023364312966326857,99.1041727339793
5.5,-0.09094460746782912,-0.017580313665216625,98.62152675454571
5.51,-0.10951903596800232,-0.027435944053292614,98.17347905320774
5.52,-0.110103137493165,-0.044787941956623306,97.7920330372038
5.53,-0.16115361079238313,-0.07085399143860034,97.48843314691493
5.54,-0.11705394564260088,-0.07606720133499574,97.275653736627
5.55,-0.2092835764657879,-0.10152440878527696,97.08449825014884
5.56,-0.16810441894181902,-0.04596757339303395,96.87171883986092
5.57,0.3759861517472165,0.21632918438691887,96.66931891300167
5.58,1.3887597862267858,0.5897776655783387,96.45653950271377
5.59,2.775708857725567,0.8642132113652268,96.24289513547345
5.6,2.2084294564875733,0.49308594041964726,96.06384904632874
5.61,0.5673962215430264,0.03683494291759674,95.8614491194695
5.62,0.08013872925231956,-0.10673761868167238,95.63742526880051
5.63,-0.08399379931839325,-0.09631119888888155,95.4237809015602
5.64,-0.17219312961795777,-0.12469845861669888,95.21100149127228
5.65,-0.1912932494907774,-0.08938562077834168,94.99735712403198
5.66,-0.1350442726176114,-0.06910357059747488,94.88577767717368
5.67,-0.15648079859108172,-0.042466731710783016,94.76208883298192
5.68,-0.14257918229220995,-0.06796199178804523,94.51557610155079
5.69,-0.1466678929683487,-0.05175157269414418,94.27944285354835
5.7,-0.09731131409210232,-0.021043102720486567,94.06666344326042
5.71,-0.08340969779323057,0.032801364457611976,93.86426351640118
5.72,-0.1379647802434248,-0.0726044122797258,93.6739729868754
5.73,-0.11413343801678748,-0.04018357409192372,93.51655082154043
5.74,-0.08165739321774253,-0.008904314713551279,93.40410641772975
5.75,-0.11302364511897839,-0.040754363496638545,93.22506032858504
5.76,-0.06600347234338273,-0.014117524609946685,92.9110809548675
5.77,-0.014368897519001904,0.049582572956227845,92.68619214724612
5.78,0.06162271090466264,0.06465141324069924,92.5858571407689
5.79,0.07902893635451047,0.11153224968127691,92.57461270038782
5.8,0.12365429287693915,0.08432462138987022,92.77614767029468
5.81,0.1346938117025138,0.09764304083321615,94.0779078836415
5.82,0.25536918680112325,0.1318142998621437,98.13974573206454
5.83,0.23445835220029937,0.12252945887878254,105.44344223804498
5.84,0.3261038814983237,0.14281150905964934,113.63458457717748
5.85,0.3290243891241371,0.1717315055652005,121.39843818182935
5.86,0.39514468177255235,0.21343718473636375,126.77328068398027
5.87,0.1932791946763305,0.07503978040650906,129.75738216972547
5.88,0.07955462772715688,0.00441410472979465,130.98043130040483
5.89,0.01752304575488037,-0.006012315062996162,131.21656454840726
5.9,0.009404034555119133,-0.019901523911056915,130.74516300935477
5.91,-0.12342065226687408,-0.06853278119276004,129.54460275943757
5.92,-0.1379647802434248,-0.09631119888888155,127.71608376208529
5.93,-0.11068723901832768,-0.028577522862722263,124.93351724624694
5.94,-0.07704299116895737,-0.039003942655513074,121.29810317535213
5.95,-0.19771836626756686,-0.11773482787917801,117.16879868464267
5.96,-0.17447112556609223,-0.12355687980726923,113.32060520345993
5.97,-0.14894588891648317,-0.06389036070107947,110.279416558857
5.98,-0.14894588891648317,-0.09284840983361162,108.2035198731212
5.99,-0.16115361079238313,-0.06506999213749011,107.05918182510933
6.0,-0.10659852834218893,-0.044787941956623306,106.56615636224709
6.01,-0.13270786651696068,-0.05232236209885901,106.43122307767426
6.02,-0.1750552270912549,-0.09863240913472185,106.64400248796218
6.03,-0.1808962423428817,-0.10038282997584731,106.94760237825103
6.04,-0.13621247566793676,-0.10559603987224273,107.31780395387392
6.05,-0.14433148686769798,-0.06564078154220493,107.53058336416184
6.06,-0.13095556194147265,-0.07663799073971057,107.71049441025895
6.07,-0.097895415617265,-0.022222734156897208,107.4743611622565
6.08,0.012850233553578939,0.049582572956227845,106.73395801101073
6.09,-0.15823310316656974,-0.0899564101830565,105.5783755226178
6.1,-0.16985672351730707,-0.12123566956142894,104.43403747460594
6.11,-0.1912932494907774,-0.10616682927695754,103.53621215802522
6.12,-0.15361870111778458,-0.08474320028666109,103.22223278430768
6.13,-0.13913298329375015,-0.05289315150357383,103.51372327726308
6.14,-0.11997445326841427,-0.08299277944553562,103.62616768107377
6.15,-0.10951903596800232,-0.019330734506342092,103.47998995611987
6.16,-0.10315232934372912,-0.05928599283637988,103.54745659840628
6.17,-0.15186639654229656,-0.07952999039026569,103.97388037593451
6.18,-0.166352114366331,-0.11948524872030347,104.69179464641815
6.19,-0.1912932494907774,-0.09341919923832644,105.47717555918818
6.2,-0.11705394564260088,-0.08128041123139115,106.33002311424464
6.21,-0.1553710056932726,-0.05639399318582476,106.98047074244185
6.22,-0.10548873544437984,-0.05810636139996924,107.3627817153982
6.23,-0.11588574259227552,-0.03611194300495796,107.4406278411133
6.24,-0.12458885531719943,-0.08820598934193104,107.23909287120644
6.25,-0.1837583398161788,-0.09692004092057738,106.7452024513918
6.26,-0.11763804716776356,-0.05407278293998447,106.10599926357565
6.27,-0.1716090280927951,-0.0974908303252922,105.34310723156774
6.28,-0.14491558839286067,-0.11659324906974836,104.43403747460594
6.29,-0.14549968991802334,-0.05057194125773354,103.49123439650094
6.3,-0.0944492166188052,-0.06796199178804523,102.53805183496725
6.31,-0.11997445326841427,-0.028577522862722263,101.68520427991079
6.32,-0.1257570583675248,-0.08128041123139115,100.93355668828396
6.33,-0.15478690416810995,-0.06160720308222017,100.28224410313436
6.34,-0.07126038606984685,-0.0395747320602279,99.68801867684249
6.35,-0.15478690416810995,-0.0922776204288968,99.14915049550356
6.36,-0.16407411841819655,-0.10559603987224273,98.66650451606999
6.37,-0.19012504644045203,-0.06739120238333039,98.28505850006604
6.38,-0.13965867466639656,-0.05289315150357383,97.9710791263485
6.39,-0.1466678929683487,0.007876893785064593,97.63461087186883
6.4,-0.10490463391921716,-0.034361522163832495,97.35436481929449
6.41,-0.10601442681702625,0.00559373616620529,97.07325380976778
6.42,-0.07529068659346932,-0.01236710376882122,96.81549663795558
6.43,-0.14082687771672192,-0.03379073275911767,96.58022834690551
6.44,-0.13913298329375015,-0.08185120063610597,96.43405062195163
6.45,-0.16115361079238313,-0.08299277944553562,96.25413957585452
6.46,-0.13965867466639656,-0.0922776204288968,96.05260460594766
6.47,-0.13679657719309943,-0.07606720133499574,95.8614491194695
6.48,-0.12867756599333818,-0.06274878189164981,95.62618082841944
6.49,-0.1437473853425353,0.022945734069535987,95.46875866308447
6.5,0.3284402875989744,0.17058992675577087,95.30095701432083
6.51,1.0691978418102839,0.5411464082966356,95.03109044517518
6.52,2.573843370629345,0.9088108901869452,94.8745332367926
6.53,2.2472722079108913,0.6401593437011673,94.73959995221978
6.54,0.8916893883133458,0.04669057330567273,94.49308722078865
6.55,-0.030022818393361704,-0.22196097318010516,94.27944285354835
6.56,-0.028328923970389934,-0.09863240913472185,94.13413008554684
6.57,-0.11413343801678748,-0.06160720308222017,93.95421903944974
6.58,-0.09561741966913055,-0.05057194125773354,93.81928575487692
6.59,-0.132123764991798,-0.048859573043589066,93.68521742725648
6.6,-0.1501140919668085,-0.0876351999372162,93.48281750039723
6.61,-0.15478690416810995,-0.030898733108562556,93.35999361315787
6.62,-0.12055855479357695,-0.07431678049387028,93.24754920934717
6.63,-0.15478690416810995,-0.06853278119276004,93.12386036515542
6.64,-0.14608379144318603,-0.07431678049387028,92.97854759715392
6.65,-0.10198412629340375,-0.028577522862722263,92.8773476337243
6.66,-0.04573514942023777,0.0003805262698098837,92.70868102800826
6.67,-0.0735383820179813,-0.004832683626585523,92.56336826000675
6.68,-0.057884461143621495,-0.025114733807452324,92.45092385619607
6.69,-0.05268595756967365,0.01659094536371093,92.25976836971789
6.7,-0.039310032643448296,-0.011225524959391569,92.09196672095425
6.71,0.029672357478264095,0.06693457085955853,91.99076675752463
6.72,0.07902893635451047,0.06982657051011365,91.91205567485714
6.73,0.07669253025385976,0.07332741219236459,92.02450007866784
6.74,0.17645707075164535,0.0837538319851554,93.16883812667969
6.75,0.22225063032439937,0.14741587692434893,96.96167436290948
6.76,0.334222892698085,0.18044555714384683,104.0863247797452
6.77,0.325519779973161,0.1792659257074362,112.61307041640498
6.78,0.3266879830234864,0.12542145852933767,120.55683506715397
6.79,0.30694535147298785,0.15612992850299529,126.59336963788319
6.8,0.2547850852759606,0.10456861894375603,129.88107101391725
6.81,0.20139820587609172,0.10806946062600696,131.3506328760277
6.82,0.0598704063291746,-0.02165194475218238,131.58676612403016
6.83,-0.03235922449401242,-0.021043102720486567,131.12660902535873
6.84,-0.04515104789507509,-0.04189594230606819,129.81360437163084
6.85,-0.061973171819760246,-0.008904314713551279,127.53617271598819
6.86,-0.13270786651696068,-0.11138003917335296,124.3271824226216
6.87,-0.16459980979084296,-0.08360162147723145,120.22036681267429
6.88,-0.1257570583675248,-0.08010077979498051,115.75459406748516
6.89,-0.1344601710924487,-0.062177992486934994,111.76108781830092
6.9,-0.11997445326841427,-0.06621157094691976,108.73114361407904
6.91,-0.15823310316656974,-0.055785151154128944,106.73395801101073
6.92,-0.12114265631873963,-0.09459883067473708,105.44344223804498
6.93,-0.14894588891648317,-0.06678236035163458,104.669305765656
6.94,-0.14608379144318603,-0.08360162147723145,104.28785974965206
6.95,-0.11939035174325159,-0.03146952251327738,104.17628030279376
6.96,-0.08977640441750377,-0.05407278293998447,104.1979042266035
6.97,-0.14082687771672192,-0.06506999213749011,104.32159307079526
6.98,-0.12517295684236213,-0.08531398969137592,104.64681688489387
6.99,-0.13965867466639656,-0.0546435723446993,104.78175016946669
7.0,-0.10256822781856643,-0.06971241262917069,104.54648187841664
7.01,-0.13095556194147265,-0.04653836279774878,103.95139149517237
7.02,-0.110103137493165,-0.07781762217612122,103.15476614202126
7.03,-0.12114265631873963,-0.04943036244830389,102.31316302734588
7.04,-0.10548873544437984,-0.07028320203388551,101.75267092219721
7.05,-0.11763804716776356,-0.04653836279774878,101.4265821511462
7.06,-0.10140002476824109,-0.043075573742478834,101.1013583370476
7.07,-0.1623218138427085,-0.07895920098555086,101.04513613514226
7.08,-0.12342065226687408,-0.0876351999372162,101.27002494276364
7.09,-0.13329196804212334,-0.07085399143860034,101.57275987610011
7.1,-0.1350442726176114,-0.09459883067473708,102.16785025934438
7.11,-0.12342065226687408,-0.051180783289429356,102.90825341059013
7.12,-0.13679657719309943,-0.08417241088194627,103.6486565618359
7.13,-0.11243954359381571,-0.03725352181438761,104.3778152727006
7.14,-0.12517295684236213,-0.07952999039026569,105.08448510280316
7.15,-0.11997445326841427,-0.03032794370384773,105.47717555918818
7.16,-0.17102492656763243,-0.10673761868167238,105.53339776109352
7.17,-0.15128229501713386,-0.08128041123139115,105.33186279118668
7.18,-0.13562837414277407,-0.07895920098555086,104.93917233480165
7.19,-0.11939035174325159,-0.0395747320602279,104.27661530927098
7.2,-0.11880625021808891,-0.08010077979498051,103.47998995611987
7.21,-0.16927262199214438,-0.09170683102418196,102.66087572220663
7.22,-0.13738067871826212,-0.07720878014442539,101.73018204143507
7.23,-0.1559551072184353,-0.04535873136133813,100.85484560561648
7.24,-0.16752031741665635,-0.04364636314719366,100.09195357360858
7.25,-0.16173771231754583,-0.015259103419376335,99.38528374350601
7.26,-0.1559551072184353,-0.03611194300495796,98.72272671797533
7.27,-0.14608379144318603,-0.03554115360024314,98.1847234935888
7.28,-0.09678562271945591,-0.0170095242605018,97.6795886333931
7.29,-0.12114265631873963,-0.006583104467710987,97.16320933281632
7.3,-0.1414109792418846,-0.06678236035163458,96.74802999566916
7.31,-0.16518391131600563,-0.08360162147723145,96.43405062195163
7.32,-0.11413343801678748,-0.09113604161946715,96.10882680785302
7.33,-0.16576801284116832,-0.08592283172307173,95.8614491194695
7.34,-0.11939035174325159,-0.06971241262917069,95.63742526880051
7.35,-0.16518391131600563,-0.039003942655513074,95.36842365660725
7.36,-0.07529068659346932,-0.003691104817155872,95.12104596822373
7.37,0.5459596955695561,0.3454417477334124,94.99735712403198
7.38,1.7014293326463679,0.6158437150603158,94.95324431946008
7.39,2.5065548749306044,0.7449562784068092,94.72835551183871
7.4,1.8221047077449772,0.2730656512155725,94.50433166116973
7.41,0.2367947583009501,-0.10734646071336819,94.41437613812117
7.42,0.020969244753340176,-0.15711929680450096,94.2569539727862
7.43,-0.10023182171791573,-0.0922776204288968,94.03293012211722
7.44,-0.11763804716776356,-0.09341919923832644,93.9317301586876
7.45,-0.16752031741665635,-0.06739120238333039,93.83053019525798
7.46,-0.17102492656763243,-0.0998120405711325,93.62899522535113
7.47,-0.18259013676585348,-0.07431678049387028,93.44908417925403
7.48,-0.17388702404092954,-0.11659324906974836,93.34874917277679
7.49,-0.1599854077420578,-0.0395747320602279,93.18008256706077
7.5,-0.10659852834218893,-0.03264915394968802,92.98979203753498
7.51,-0.09094460746782912,0.029909364807056856,92.85485875296216
7.52,-0.14491558839286067,-0.0899564101830565,92.78739211067574
7.53,-0.1553710056932726,-0.04421715255190848,92.64121438572185
7.54,-0.07704299116895737,-0.04596757339303395,92.4734127369582
7.55,-0.09847951714242768,-0.0170095242605018,92.34972389276645
7.56,-0.03872593111828562,-0.014117524609946685,92.24852392933683
7.57,-0.005665784794077987,0.06925578110539883,92.0694778401921
7.58,0.04304828240448944,0.06465141324069924,91.90081123447608
7.59,0.08656384602910903,0.11963745922822742,91.77798734723672
7.6,0.13352560865218843,0.08664583163571052,91.75549846647458
7.61,0.14047641680162432,0.11442424933183203,92.24852392933683
7.62,0.1677539580267214,0.1086402500307218,94.68337775031443
7.63,0.28258831787370414,0.18622955644495706,100.39468850694504
7.64,0.34643061457398494,0.16537671685937544,108.21476431350227
7.65,0.3539655242485835,0.21747076319634853,116.20350672577553
7.66,0.29596424279992944,0.14973708717018921,123.14911105346654
7.67,0.15326824020268698,0.07389820159707941,127.70483932170421
7.68,0.031424662053752134,-0.03379073275911767,129.83609325239297
7.69,-0.027744822445227253,-0.03146952251327738,130.61022972478193
7.7,-0.0631413748700856,-0.06678236035163458,130.32998367220762
7.71,-0.11302364511897839,-0.027435944053292614,129.15191230305254
7.72,-0.10718262986735161,-0.07781762217612122,127.06477117693568
7.73,-0.10315232934372912,-0.02800673345800744,124.0356919296662
7.74,-0.12750936294301282,-0.08706441053250139,120.07505404467278
7.75,-0.180312140817719,-0.07549641193028092,115.59803685910258
7.76,-0.1936296555914281,-0.15944050705034127,111.42375460686885
7.77,-0.17855983624223098,-0.10734646071336819,108.11442930702503
7.78,-0.16349001689303386,-0.11659324906974836,105.77991049252465
7.79,-0.16056950926722047,-0.06678236035163458,104.3440819515574
7.8,-0.12342065226687408,-0.053463940908288654,103.41252331383346
7.81,-0.13270786651696068,-0.05810636139996924,102.82954232792265
7.82,-0.09678562271945591,-0.040754363496638545,102.35814078887014
7.83,-0.13913298329375015,-0.06621157094691976,102.03291697477154
7.84,-0.15186639654229656,-0.10502525046752789,101.93171701134192
7.85,-0.16693621589149366,-0.07952999039026569,101.84176148829337
7.86,-0.15361870111778458,-0.09459883067473708,101.70769316067293
7.87,-0.1228365507417114,-0.04535873136133813,101.31500270428792
7.88,-0.12114265631873963,-0.07431678049387028,100.67493455951937
7.89,-0.10023182171791573,-0.009475104118266103,99.97950916979788
7.9,-0.11530164106711284,-0.06042757164580953,99.49686319036431
7.91,-0.16349001689303386,-0.07663799073971057,99.23910601855212
7.92,-0.17330292251576687,-0.13455408900477486,99.34030598198174
7.93,-0.19012504644045203,-0.0876351999372162,100.03573137170324
7.94,-0.13153966346663531,-0.07028320203388551,100.52962179151787
7.95,-0.13854888176858746,-0.030898733108562556,100.75364564218685
7.96,-0.15128229501713386,-0.07317520168444062,101.2138027408583
7.97,-0.1466678929683487,-0.05928599283637988,101.9766947728662
7.98,-0.13387606956728604,-0.07028320203388551,102.96447561249548
7.99,-0.1750552270912549,-0.08649362112778657,103.85019153174275
8.0,-0.18317423829101614,-0.1403380883058851,104.5577263187977
8.01,-0.16810441894181902,-0.07085399143860034,104.89419457327739
8.02,-0.1437473853425353,-0.06331957129636465,105.02826290089781
8.03,-0.17855983624223098,-0.047109152202463596,104.88295013289631
8.04,-0.1999963622157013,-0.12066488015671412,104.49025967651129
8.05,-0.15764900164140708,-0.039003942655513074,103.79396932983741
8.06,-0.12867756599333818,-0.0726044122797258,102.87452008944693
8.07,-0.14952999044164583,-0.04943036244830389,101.89798369019871
8.08,-0.18609474591682953,-0.09574040948416673,101.05638057552333
8.09,-0.12055855479357695,-0.024543944402737498,100.27099966275328
8.1,-0.15361870111778458,-0.07781762217612122,99.50810763074539
8.11,-0.18609474591682953,-0.06449920273277528,98.80143780064282
8.12,-0.15420280264294728,-0.03146952251327738,98.1509901724456
8.13,-0.21740258766554912,-0.05057194125773354,97.69083307377417
8.14,-0.1837583398161788,-0.04767994160717842,97.30938705777022
8.15,-0.1263411598926875,0.035122574703452265,96.86047439947986
8.16,-0.132123764991798,-0.007153893872425813,96.44529506233269
8.17,-0.20233276831635202,-0.06796199178804523,96.08633792709088
8.18,-0.1599854077420578,-0.043075573742478834,95.91767132137484
8.19,-0.1437473853425353,-0.006012315062996162,95.76111411299227
8.2,-0.09503331814396788,-0.010654735554676742,95.54746974575195
8.21,-0.24409602736548358,-0.09341919923832644,95.3122014547019
8.22,-0.1466678929683487,-0.09402804127002226,95.17726817012908
8.23,-0.1623218138427085,-0.03146952251327738,95.04233488555624
8.24,-0.21337228714192666,-0.02279352356161203,94.86328879641154
8.25,0.2425773634000606,0.16712713770050092,94.6946221906955
8.26,1.0540696123085707,0.5011911499665977,94.53806498231293
8.27,2.483366044381646,0.867105211015782,94.34690949583477
8.28,2.219468975313148,0.5631408266916469,94.16786340669005
8.29,0.9491065682368371,0.14281150905964934,94.05541900287936
8.3,-0.04223054026926169,-0.24224302336097195,93.88675239716332
8.31,-0.08282559626806789,-0.08820598934193104,93.59526190420792
8.32,-0.10659852834218893,-0.06971241262917069,93.34874917277679
8.33,-0.13042987056882624,-0.006012315062996162,93.27003809010931
8.34,-0.22207539986685057,-0.11891445931558865,93.22506032858504
8.35,-0.18667884744199223,-0.057535571995254414,93.04514928248794
8.36,-0.18954094491528936,-0.09806161973000703,92.83236987220002
8.37,-0.17388702404092954,-0.03264915394968802,92.68619214724612
8.38,-0.12750936294301282,-0.02279352356161203,92.64121438572185
8.39,-0.166352114366331,-0.04018357409192372,92.57461270038782
8.4,-0.10490463391921716,-0.023935102371041683,92.49590161772034
8.41,-0.12867756599333818,-0.011225524959391569,92.34972389276645
8.42,-0.10659852834218893,-0.023364312966326857,92.11445560171639
8.43,-0.05327005909483633,0.055937361662052903,91.97952231714356
8.44,-0.08866661151969468,-0.009475104118266103,91.94578899600036
8.45,-0.10718262986735161,-0.008904314713551279,91.8558334729518
8.46,-0.03703203669531385,0.02005373441898087,91.66554294342602
8.47,0.05461349260271049,0.10746061859431115,91.57558742037747
8.48,0.044216485454814804,0.04669057330567273,91.78923178761778
8.49,0.13235740560186307,0.13584787832212847,92.74241434915146
8.5,0.17236836007550657,0.09764304083321615,96.01887128480446
8.51,0.2518645776501472,0.17580313665216626,102.94198673173334
8.52,0.2942119382244414,0.1416318776232387,111.32341960039162
8.53,0.3266879830234864,0.20533197518941324,119.36751925761783
8.54,0.2988263402732266,0.1514875080113147,125.76301096358885
8.55,0.1747047661761573,0.0837538319851554,129.48838055753222
8.56,0.14106051832678698,0.05882936131260802,131.12660902535873
8.57,0.07260381957772101,0.05536657225733808,131.5755216836491
8.58,-0.07529068659346932,-0.05867715080468406,131.12660902535873
8.59,-0.11127134054349036,-0.0395747320602279,129.69078048439147
8.6,-0.10256822781856643,-0.051180783289429356,127.24468222303278
8.61,-0.14549968991802334,-0.039003942655513074,123.93449196623658
8.62,-0.13562837414277407,-0.07317520168444062,119.89514299857568
8.63,-0.13965867466639656,-0.01236710376882122,115.50808133605403
8.64,-0.1912932494907774,-0.11313046001447842,111.53619901067954
8.65,-0.2092835764657879,-0.08881483137362685,108.50711976341006
8.66,-0.13562837414277407,-0.08010077979498051,106.50993416034174
8.67,-0.166352114366331,-0.027435944053292614,105.33186279118668
8.68,-0.16407411841819655,-0.07028320203388551,104.5577263187977
8.69,-0.180312140817719,-0.04828878363887424,103.96263593555345
8.7,-0.15764900164140708,-0.07720878014442539,103.70487876374125
8.71,-0.09561741966913055,0.01887410298257023,103.67114544259805
8.72,-0.1263411598926875,-0.07549641193028092,103.51372327726308
8.73,-0.16518391131600563,-0.055214361749414125,103.1435217016402
8.74,-0.13562837414277407,-0.08531398969137592,103.12103282087806
8.75,-0.1344601710924487,-0.029757154299132903,103.1772550227834
8.76,-0.08919230289234109,-0.0320783645449732,102.87452008944693
8.77,-0.14433148686769798,-0.016438734855786976,102.10038361705796
8.78,-0.13387606956728604,-0.07028320203388551,101.2812693831447
8.79,-0.11939035174325159,-0.01004589352298093,100.64120123837617
8.8,-0.16752031741665635,-0.10616682927695754,100.25975522237222
8.81,-0.14608379144318603,-0.034361522163832495,100.13693133513284
8.82,-0.13153966346663531,-0.06621157094691976,100.1922885800858
8.83,-0.15648079859108172,-0.051180783289429356,100.28224410313436
8.84,-0.16810441894181902,-0.10673761868167238,100.6299567979951
8.85,-0.12984576904366354,-0.014117524609946685,101.1013583370476
8.86,-0.15478690416810995,-0.09631119888888155,101.78553928638803
8.87,-0.1599854077420578,-0.03554115360024314,102.61589796068235
8.88,-0.14549968991802334,-0.06621157094691976,103.41252331383346
8.89,-0.17388702404092954,-0.053463940908288654,104.07508033936413
8.9,-0.1686885204669817,-0.09516962007945191,104.5239929976545
8.91,-0.13329196804212334,-0.025685523212167147,104.73677240794241
8.92,-0.15478690416810995,-0.07374599108915546,104.46777079574916
8.93,-0.13679657719309943,-0.03379073275911767,103.96263593555345
8.94,-0.10198412629340375,-0.034361522163832495,103.41252331383346
8.95,-0.1472519944935114,-0.040754363496638545,102.68336460296877
8.96,-0.16693621589149366,-0.09170683102418196,101.84176148829337
8.97,-0.21103588104127594,-0.06331957129636465,100.98891393323692
8.98,-0.1472519944935114,-0.019330734506342092,100.10319801398964
8.99,-0.17914393776739365,0.013698945713155813,99.28408378007639
9.0,-0.1912932494907774,-0.07317520168444062,98.58779343340251
9.01,-0.10835083291767696,0.015982103332015114,97.9036124840621
9.02,-0.06775577691887077,0.026408523124805926,97.30938705777022
9.03,-0.15881720469173244,-0.019901523911056915,96.90545216100412
9.04,-0.16752031741665635,-0.07838841158083604,96.49027282385697
9.05,-0.16407411841819655,-0.043075573742478834,96.06384904632874
9.06,-0.15764900164140708,-0.08417241088194627,95.80522691756416
9.07,-0.15303459959262192,-0.06739120238333039,95.49124754384661
9.08,-0.110103137493165,-0.08128041123139115,95.14353484898587
9.09,-0.18667884744199223,-0.0395747320602279,94.94199987907902
9.1,-0.06833987844403344,-0.0170095242605018,94.78457771374406
9.11,0.5244647594435695,0.33733653818646187,94.53806498231293
9.12,1.7374099865963888,0.6760429709442394,94.33566505545369
9.13,2.4740788301315595,0.7322086483681782,94.17910784707111
9.14,1.8441253352436102,0.2516420222252761,94.02168568173614
9.15,0.19503149925181854,-0.09806161973000703,93.86426351640118
9.16,-0.0004672812201301432,-0.1652245063514515,93.77517295030502
9.17,-0.048597246893534896,-0.029757154299132903,93.6402396657322
9.18,-0.1623218138427085,-0.11484282822862289,93.49406194077831
9.19,-0.1750552270912549,-0.027435944053292614,93.39372693430107
9.2,-0.1263411598926875,-0.0546435723446993,93.28128253049039
9.21,-0.2029168698415147,-0.06853278119276004,93.10137148439328
9.22,-0.1599854077420578,-0.08820598934193104,92.97854759715392
9.23,-0.18901525354264292,-0.05810636139996924,92.9110809548675
9.24,-0.14549968991802334,-0.06971241262917069,92.77614767029468
9.25,-0.1037364308688918,-0.011225524959391569,92.66370326648398
9.26,-0.08633020541904396,-0.03379073275911767,92.61872550495971
9.27,-0.09503331814396788,0.007876893785064593,92.49590161772034
9.28,-0.010922698520542099,0.03740573232231156,92.30474613124217
9.29,-0.11185544206865304,-0.004261894221870698,92.17067780362173
9.3,-0.07184448759500953,-0.006012315062996162,92.04698895942997
9.31,-0.03060691991852438,0.04029773197286668,91.83334459218966
9.32,0.031424662053752134,0.039156153163437034,91.68803182418816
9.33,0.05694989870336121,0.08664583163571052,91.66554294342602
9.34,0.17353656312583193,0.11096146027656208,91.69927626456924
9.35,0.25939948732474577,0.22907681442554997,92.52963493886355
9.36,0.2362106567757874,0.12542145852933767,95.69364747070586
9.37,0.27505340819910556,0.1763739260568811,102.14536137858224
9.38,0.3411737008475208,0.15205829741602953,110.12285935047441
9.39,0.3011627463738773,0.17462350521575562,117.96542403779378
9.4,0.2710231076754831,0.11153224968127691,124.33842686300267
9.41,0.18808069110238265,0.10517746097545184,128.20910922494755
9.42,0.12832710507824058,0.054224993447908425,130.02724873887115
9.43,0.06740531600377316,0.04901178355151302,130.48740583754258
9.44,0.005315323878980379,-0.038433153250798255,129.94853765620365
9.45,-0.08165739321774253,-0.03725352181438761,128.72548852552433
9.46,-0.06541937081822005,-0.07199557024803,126.68332516093173
9.47,-0.12517295684236213,-0.06389036070107947,123.59802371175691
9.48,-0.10951903596800232,-0.07028320203388551,119.72734134981204
9.49,-0.1379647802434248,-0.05232236209885901,115.49683689567296
9.5,-0.12055855479357695,-0.10848803952279784,111.53619901067954
9.51,-0.10315232934372912,-0.03611194300495796,108.37218647883724
9.52,-0.06892397996919612,-0.0546435723446993,106.13973258471886
9.53,-0.15128229501713386,-0.06739120238333039,104.72552796756135
9.54,-0.10315232934372912,-0.08128041123139115,103.85019153174275
9.55,-0.09503331814396788,-0.0320783645449732,103.37965494964264
9.56,-0.09731131409210232,-0.08531398969137592,103.1772550227834
9.57,-0.1506981934919712,-0.06506999213749011,102.94198673173334
9.58,-0.11471753954195016,-0.10327482962640243,102.93074229135227
9.59,-0.07704299116895737,-0.025685523212167147,102.95323117211441
9.6,-0.034111529069500456,-0.02800673345800744,102.81829788754159
9.61,-0.10548873544437984,-0.05232236209885901,102.43685187153763
9.62,-0.08107329169257985,-0.05057194125773354,101.41533771076514
9.63,-0.14491558839286067,-0.059856782241094704,100.28224410313436
9.64,-0.12517295684236213,-0.09806161973000703,99.74424087874783
9.65,-0.088082509994532,-0.030898733108562556,99.65428535569927
9.66,-0.09906361866759036,-0.0876351999372162,99.78835368331971
9.67,-0.13738067871826212,-0.06910357059747488,99.92328696789254
9.68,-0.10023182171791573,-0.08128041123139115,100.1922885800858
9.69,-0.09036050594266645,0.0026636838886691856,100.68617899990045
9.7,-0.08633020541904396,-0.06971241262917069,101.40409327038408
9.71,-0.15186639654229656,-0.06506999213749011,102.20071862353518
9.72,-0.14257918229220995,-0.09341919923832644,103.04232173821057
9.73,-0.10776673139251428,-0.003120315412441046,103.94014705479131
9.74,-0.11588574259227552,-0.10673761868167238,104.79299460984777
9.75,-0.1257570583675248,-0.05289315150357383,105.20817394699492
9.76,-0.09211281051815448,-0.07895920098555086,105.19692950661386
9.77,-0.11243954359381571,-0.027435944053292614,104.98328513937355
9.78,-0.10548873544437984,-0.08938562077834168,104.56897075917877
9.79,-0.14024277619155923,-0.03554115360024314,103.81645821059955
9.8,-0.08919230289234109,-0.08820598934193104,102.89700897020907
9.81,-0.1716090280927951,-0.06274878189164981,101.9766947728662
9.82,-0.19941226069053863,-0.07895920098555086,101.05638057552333
9.83,-0.17914393776739365,-0.013546735205231858,100.20353302046688
9.84,-0.06658757386854541,-0.0025495260077262206,99.47437430960217
9.85,-0.2122040840916013,-0.07199557024803,98.86890444292924
9.86,-0.05093365299418561,-0.018759945101627266,98.28505850006604
9.87,-0.1472519944935114,-0.030898733108562556,97.66834419301203
9.88,-0.0944492166188052,-0.06389036070107947,97.17445377319738
9.89,-0.1559551072184353,-0.04767994160717842,96.81549663795558
9.9,-0.12750936294301282,-0.1351248784094897,96.49027282385697
9.91,-0.08633020541904396,-0.03786236384608343,96.12007124823408
9.92,-0.06775577691887077,-0.05057194125773354,95.88393800023164
9.93,-0.12458885531719943,-0.04767994160717842,95.72738079184906
9.94,-0.2162343846152238,-0.11602245966503354,95.55871418613303
9.95,0.1677539580267214,0.10688982918959633,95.32344589508297
9.96,0.9067592076625429,0.42938584285347275,95.166023729748
9.97,2.278580049659611,0.8022635346401777,95.15477928936694
9.98,2.3493731545093275,0.6864693907370302,95.08731264708052
9.99,1.2060528291558996,0.14220266702795353,94.91951099831688
