time_s,ECG,NIBP
0.0,0.14449937500420784,-45.899659432508315
0.01,0.09170632581308634,-43.79394933593631
0.02,0.04104419606204283,-45.74706688512833
0.03,0.0010750584562555653,-43.763438277268286
0.04,-0.028066704697243507,-45.8691483738403
0.05,-0.04332869528158591,-43.79394933593631
0.06,-0.05692050576424555,-45.8691483738403
0.07,-0.06438832254073511,-43.763438277268286
0.08,-0.06713356109867342,-45.8691483738403
0.09,-0.0665192419808131,-43.73292721860027
0.1,-0.06667282176027818,-45.77757794379635
0.11,-0.06210382332119203,-43.73292721860027
0.12,-0.06225740310065711,-45.80808900246437
0.13,-0.05935858476325371,-43.763438277268286
0.14,-0.05843710608646322,-45.77757794379635
0.15,-0.05722766532317571,-43.79394933593631
0.16,-0.05905142520432355,-45.74706688512833
0.17,-0.06102876486493646,-43.79394933593631
0.18,-0.06056802552654122,-45.83863731517228
0.19,-0.06225740310065711,-43.763438277268286
0.2,-0.06638485967378115,-45.74706688512833
0.21,-0.06667282176027818,-43.79394933593631
0.22,-0.07202891656912287,-45.77757794379635
0.23,-0.07277761799401514,-43.763438277268286
0.24,-0.07536927677248838,-45.80808900246437
0.25,-0.07462057534759611,-43.82446039460433
0.26,-0.07659791500820902,-45.80808900246437
0.27,-0.0804182120224029,-43.64135678855632
0.28,-0.07857525466882194,-45.77757794379635
0.29,-0.0804182120224029,-43.763438277268286
0.3,-0.08026463224293783,-45.68604476779229
0.31,-0.08132049322676026,-43.763438277268286
0.32,-0.08147407300622533,-45.77757794379635
0.33,-0.07888241422775209,-43.73292721860027
0.34,-0.08224197190355075,-45.77757794379635
0.35,-0.08377776969820155,-43.73292721860027
0.36,-0.08011105246347275,-45.74706688512833
0.37,-0.08331703035980631,-43.82446039460433
0.38,-0.0825491314624809,-45.74706688512833
0.39,-0.08529437002041922,-43.67186784722434
0.4,-0.08483363068202397,-45.716555826460315
0.41,-0.08452647112309382,-43.70237890589236
0.42,-0.08514079024095414,-45.77757794379635
0.43,-0.0825491314624809,-43.763438277268286
0.44,-0.08270271124194599,-45.83863731517228
0.45,-0.08208839212408565,-43.70237890589236
0.46,-0.08316345058034122,-45.716555826460315
0.47,-0.08393134947766663,-43.70237890589236
0.48,-0.07126101767179746,-45.716555826460315
0.49,-0.057669207189137824,-43.73292721860027
0.5,-0.0462275136189893,-45.77757794379635
0.51,-0.03891327662196484,-43.763438277268286
0.52,-0.04881917239746254,-45.80808900246437
0.53,-0.0672871408781385,-43.73292721860027
0.54,-0.06866935889332423,-45.77757794379635
0.55,-0.07629075544927887,-43.67186784722434
0.56,-0.0846800509025589,-45.77757794379635
0.57,-0.09003614571140359,-43.67186784722434
0.58,-0.08957540637300834,-45.77757794379635
0.59,-0.09017052801843553,-43.79394933593631
0.6,-0.09185990559255142,-45.77757794379635
0.61,-0.0920134853720165,-43.79394933593631
0.62,-0.12908380464040037,-45.77757794379635
0.63,-0.12557066718513665,-43.82446039460433
0.64,0.11092299571865458,-45.74706688512833
0.65,0.5499307953195879,-43.70237890589236
0.66,0.6314048683258132,-45.74706688512833
0.67,0.06164308398279678,-43.70237890589236
0.68,-0.32624184652869775,-45.74706688512833
0.69,-0.21347589345646223,-43.763438277268286
0.7,-0.08529437002041922,-45.77757794379635
0.71,-0.06102876486493646,-43.763438277268286
0.72,-0.07156817723072763,-45.8691483738403
0.73,-0.06667282176027818,-43.67186784722434
0.74,-0.06102876486493646,-45.8691483738403
0.75,-0.05722766532317571,-43.763438277268286
0.76,-0.051717990734865944,-45.80808900246437
0.77,-0.046688252957384546,-43.82446039460433
0.78,-0.043789434619981145,-45.74706688512833
0.79,-0.03524655938723603,-43.73292721860027
0.8,-0.028527444035638748,-45.83863731517228
0.81,-0.0218275261564746,-43.763438277268286
0.82,-0.015108410804877319,-45.74706688512833
0.83,-0.003205977896333561,-43.610845729888304
0.84,0.010520214893358032,-45.80808900246437
0.85,0.02167394637700952,-43.67186784722434
0.86,0.03707031926838387,-45.83863731517228
0.87,0.057074085543710636,-43.70237890589236
0.88,0.08147407300622533,-45.77757794379635
0.89,0.1130731126311657,-43.70237890589236
0.9,0.1434243165479523,-45.74706688512833
0.91,0.16937929927755094,-43.70237890589236
0.92,0.18844238940365407,-45.80808900246437
0.93,0.188288809624189,-43.73292721860027
0.94,0.15883988691175976,-45.77757794379635
0.95,0.11184447439544505,-43.79394933593631
0.96,0.05753482488210587,-45.83863731517228
0.97,0.013879772569156672,-43.73292721860027
0.98,-0.022269068022436708,-45.80808900246437
0.99,-0.04807047097257027,-43.67186784722434
1.0,-0.0651562214380605,-45.83863731517228
1.01,-0.07369909667080562,-43.64135678855632
1.02,-0.07903599400721718,-45.83863731517228
1.03,-0.0796503131250775,-43.70237890589236
1.04,-0.0796503131250775,-45.80808900246437
1.05,-0.07980389290454258,-43.763438277268286
1.06,-0.07813371280285983,-45.80808900246437
1.07,-0.07857525466882194,-43.79394933593631
1.08,-0.0759835958903487,-45.77757794379635
1.09,-0.07431341578866595,-43.82446039460433
1.1,-0.0759835958903487,-45.77757794379635
1.11,-0.0796503131250775,-43.73292721860027
1.12,-0.0796503131250775,-45.77757794379635
1.13,-0.08118611091972831,-43.82446039460433
1.14,-0.08711812990156706,-45.83863731517228
1.15,-0.08773244901942738,-43.82446039460433
1.16,-0.0912455864746911,-45.77757794379635
1.17,-0.09322292613530402,-43.763438277268286
1.18,-0.09383724525316434,-45.77757794379635
1.19,-0.09552662282728022,-43.763438277268286
1.2,-0.09598736216567547,-45.77757794379635
1.21,-0.09658248381110265,-43.79394933593631
1.22,-0.10055636060476161,-45.77757794379635
1.23,-0.0991741425895759,-43.73292721860027
1.24,-0.09857902094414871,-45.8691483738403
1.25,-0.09994204148690129,-43.73292721860027
1.26,-0.10040278082529654,-45.77757794379635
1.27,-0.10178499884048227,-43.763438277268286
1.28,-0.09978846170743622,-45.77757794379635
1.29,-0.10101709994315686,-43.763438277268286
1.3,-0.10238012048590946,-45.80808900246437
1.31,-0.10086352016369178,-43.73292721860027
1.32,-0.10376233850109517,-45.80808900246437
1.33,-0.10437665761895551,-43.85497145327235
1.34,-0.10483739695735074,-45.716555826460315
1.35,-0.10512535904384777,-43.82446039460433
1.36,-0.10376233850109517,-45.83863731517228
1.37,-0.1049717792643827,-43.79394933593631
1.38,-0.10787059760178609,-45.77757794379635
1.39,-0.10406949806002534,-43.82446039460433
1.4,-0.10620041750010334,-45.80808900246437
1.41,-0.10635399727956842,-43.763438277268286
1.42,-0.10773621529475415,-45.77757794379635
1.43,-0.10742905573582398,-43.763438277268286
1.44,-0.10604683772063826,-45.65553370912427
1.45,-0.10894565605804166,-43.73292721860027
1.46,-0.10604683772063826,-45.77757794379635
1.47,-0.10589325794117317,-43.73292721860027
1.48,-0.09445156437102466,-45.80808900246437
1.49,-0.08057179180186799,-43.82446039460433
1.5,-0.07064669855393714,-45.74706688512833
1.51,-0.06392758320233986,-43.763438277268286
1.52,-0.08132049322676026,-45.77757794379635
1.53,-0.0956802026067453,-43.79394933593631
1.54,-0.09658248381110265,-45.716555826460315
1.55,-0.10253370026537453,-43.67186784722434
1.56,-0.11199805417491014,-45.80808900246437
1.57,-0.11397539383552305,-43.79394933593631
1.58,-0.11397539383552305,-45.80808900246437
1.59,-0.1130731126311657,-43.763438277268286
1.6,-0.11245879351330537,-45.716555826460315
1.61,-0.11794927062918202,-43.763438277268286
1.62,-0.15793760570740242,-45.74706688512833
1.63,-0.12877664508147021,-43.73292721860027
1.64,0.15242793111909264,-45.80808900246437
1.65,0.5836415569121731,-43.79394933593631
1.66,0.5412343403073777,-45.68604476779229
1.67,-0.05966574432218387,-43.79394933593631
1.68,-0.3477430156538091,-45.77757794379635
1.69,-0.20873411776547787,-43.70237890589236
1.7,-0.10040278082529654,-45.899659432508315
1.71,-0.08727170968103214,-43.79394933593631
1.72,-0.09688964337003282,-45.80808900246437
1.73,-0.09078484713629585,-43.82446039460433
1.74,-0.08498721046148906,-45.77757794379635
1.75,-0.08087895136079815,-43.82446039460433
1.76,-0.07644433522874394,-45.77757794379635
1.77,-0.07339193711187546,-43.73292721860027
1.78,-0.06744072065760358,-45.899659432508315
1.79,-0.05812994652753306,-43.70237890589236
1.8,-0.05402168742684215,-45.77757794379635
1.81,-0.04927991173585779,-43.82446039460433
1.82,-0.035707298725631276,-45.68604476779229
1.83,-0.026550104375025835,-43.763438277268286
1.84,-0.013726192789691592,-45.77757794379635
1.85,-0.0019773396606129145,-43.763438277268286
1.86,0.01541557036380748,-45.68604476779229
1.87,0.03707031926838387,-43.79394933593631
1.88,0.061182344644401546,-45.83863731517228
1.89,0.09521946326835007,-43.763438277268286
1.9,0.12512912531917453,-45.80808900246437
1.91,0.15227435133962755,-43.88548251194037
1.92,0.16830424082129536,-45.77757794379635
1.93,0.16784350148290011,-43.79394933593631
1.94,0.14098623754894413,-45.716555826460315
1.95,0.09109200669522602,-43.73292721860027
1.96,0.03447866048991063,-45.68604476779229
1.97,-0.008850034791675279,-43.763438277268286
1.98,-0.04471091329677163,-45.80808900246437
1.99,-0.06805503977546391,-43.70237890589236
2.0,-0.0854479497998843,-45.77757794379635
2.01,-0.09475872392995482,-43.73292721860027
2.02,-0.10086352016369178,-45.83863731517228
2.03,-0.09902056281011082,-43.763438277268286
2.04,-0.09811828160575346,-45.77757794379635
2.05,-0.09399082503262941,-43.82446039460433
2.06,-0.09262780448987683,-45.77757794379635
2.07,-0.0891146670346131,-43.82446039460433
2.08,-0.09109200669522602,-45.77757794379635
2.09,-0.08957540637300834,-43.79394933593631
2.1,-0.09170632581308634,-45.74706688512833
2.11,-0.0920134853720165,-43.70237890589236
2.12,-0.09521946326835007,-45.80808900246437
2.13,-0.0978111220468233,-43.73292721860027
2.14,-0.10086352016369178,-45.716555826460315
2.15,-0.10330159916269993,-43.79394933593631
2.16,-0.10437665761895551,-45.68604476779229
2.17,-0.10787059760178609,-43.79394933593631
2.18,-0.10848491671964641,-45.83863731517228
2.19,-0.10955997517590198,-43.79394933593631
2.2,-0.11063503363215754,-45.83863731517228
2.21,-0.1094063953964369,-43.763438277268286
2.22,-0.11199805417491014,-45.80808900246437
2.23,-0.11443613317391829,-43.79394933593631
2.24,-0.11276595307223554,-45.74706688512833
2.25,-0.11489687251231354,-43.79394933593631
2.26,-0.11382181405605797,-45.77757794379635
2.27,-0.11428255339445322,-43.79394933593631
2.28,-0.1130731126311657,-45.83863731517228
2.29,-0.11443613317391829,-43.73292721860027
2.3,-0.11397539383552305,-45.77757794379635
2.31,-0.11535761185070878,-43.73292721860027
2.32,-0.11566477140963893,-45.716555826460315
2.33,-0.11794927062918202,-43.85497145327235
2.34,-0.11961945073086477,-45.77757794379635
2.35,-0.11917790886490266,-43.763438277268286
2.36,-0.11566477140963893,-45.716555826460315
2.37,-0.11794927062918202,-43.79394933593631
2.38,-0.11672063239346137,-45.77757794379635
2.39,-0.11581835118910402,-43.763438277268286
2.4,-0.11643267030696434,-45.83863731517228
2.41,-0.11581835118910402,-43.82446039460433
2.42,-0.11718137173185661,-45.716555826460315
2.43,-0.11718137173185661,-43.763438277268286
2.44,-0.11581835118910402,-45.77757794379635
2.45,-0.11627909052749925,-43.73292721860027
2.46,-0.11397539383552305,-45.716555826460315
2.47,-0.10314801938323485,-43.763438277268286
2.48,-0.08942182659354327,-45.77757794379635
2.49,-0.07888241422775209,-43.79394933593631
2.5,-0.06928367801118455,-45.716555826460315
2.51,-0.08377776969820155,-43.763438277268286
2.52,-0.09735038270842807,-45.83863731517228
2.53,-0.10024920104583146,-43.82446039460433
2.54,-0.10483739695735074,-45.716555826460315
2.55,-0.11291953285170062,-43.79394933593631
2.56,-0.11397539383552305,-45.77757794379635
2.57,-0.11627909052749925,-43.82446039460433
2.58,-0.11551119163017386,-45.8691483738403
2.59,-0.1159719309685691,-43.82446039460433
2.6,-0.12130882830498066,-45.80808900246437
2.61,-0.16037568470641056,-43.73292721860027
2.62,-0.1266457256413922,-45.83863731517228
2.63,0.15091133079687497,-43.79394933593631
2.64,0.5773831808989711,-45.74706688512833
2.65,0.5299462265166942,-43.73292721860027
2.66,-0.06500264165859543,-45.74706688512833
2.67,-0.3425596980968626,-43.763438277268286
2.68,-0.2110378144574541,-45.68604476779229
2.69,-0.1028408598243047,-43.763438277268286
2.7,-0.08377776969820155,-45.74706688512833
2.71,-0.0941444048120945,-43.79394933593631
2.72,-0.08667658803560495,-45.74706688512833
2.73,-0.0817812325651555,-43.67186784722434
2.74,-0.07690507456713919,-45.74706688512833
2.75,-0.07033953899500699,-43.763438277268286
2.76,-0.06530980121752558,-45.716555826460315
2.77,-0.060433643219509274,-43.763438277268286
2.78,-0.052946628970586586,-45.68604476779229
2.79,-0.049740651074253024,-43.79394933593631
2.8,-0.04119777584150791,-45.65553370912427
2.81,-0.032501320829297714,-43.88548251194037
2.82,-0.023344126478692273,-45.65553370912427
2.83,-0.014340511907551914,-43.79394933593631
2.84,0.00046073933839524227,-45.80808900246437
2.85,0.01998456880289363,-43.763438277268286
2.86,0.03983475529875532,-45.80808900246437
2.87,0.0701859592155419,-43.79394933593631
2.88,0.10024920104583146,-45.77757794379635
2.89,0.1316754634188736,-43.67186784722434
2.9,0.15976136558855025,-45.74706688512833
2.91,0.1765399564951103,-43.67186784722434
2.92,0.17440903705503233,-45.716555826460315
2.93,0.14496011434260309,-43.73292721860027
2.94,0.09322292613530402,-45.74706688512833
2.95,0.040122717385252346,-43.763438277268286
2.96,-0.0021309194400779955,-45.65553370912427
2.97,-0.03996913760578726,-43.763438277268286
2.98,-0.06408116298180494,-45.74706688512833
2.99,-0.0804182120224029,-43.73292721860027
3.0,-0.08742528946049721,-45.77757794379635
3.01,-0.09475872392995482,-43.85497145327235
3.02,-0.09460514415048973,-45.716555826460315
3.03,-0.09552662282728022,-43.70237890589236
3.04,-0.09322292613530402,-45.74706688512833
3.05,-0.09368366547369926,-43.763438277268286
3.06,-0.09232064493094666,-45.716555826460315
3.07,-0.0891146670346131,-43.85497145327235
3.08,-0.09170632581308634,-45.716555826460315
3.09,-0.08972898615247343,-43.763438277268286
3.1,-0.09306934635583894,-45.77757794379635
3.11,-0.0920134853720165,-43.763438277268286
3.12,-0.09337650591476909,-45.77757794379635
3.13,-0.09368366547369926,-43.79394933593631
3.14,-0.09888618050307886,-45.77757794379635
3.15,-0.1007099403842267,-43.763438277268286
3.16,-0.10055636060476161,-45.74706688512833
3.17,-0.09978846170743622,-43.763438277268286
3.18,-0.10132425950208702,-45.74706688512833
3.19,-0.10117067972262195,-43.82446039460433
3.2,-0.10207296092697929,-45.74706688512833
3.21,-0.10330159916269993,-43.85497145327235
3.22,-0.09857902094414871,-45.80808900246437
3.23,-0.10055636060476161,-43.79394933593631
3.24,-0.10055636060476161,-45.74706688512833
3.25,-0.10117067972262195,-43.82446039460433
3.26,-0.09811828160575346,-45.77757794379635
3.27,-0.09552662282728022,-43.70237890589236
3.28,-0.09811828160575346,-45.80808900246437
3.29,-0.0956802026067453,-43.70237890589236
3.3,-0.09627532425217249,-45.80808900246437
3.31,-0.09598736216567547,-43.79394933593631
3.32,-0.09583378238621039,-45.74706688512833
3.33,-0.09293496404880698,-43.82446039460433
3.34,-0.08880750747568295,-45.80808900246437
3.35,-0.09216706515148158,-43.70237890589236
3.36,-0.09216706515148158,-45.77757794379635
3.37,-0.08819318835782262,-43.763438277268286
3.38,-0.07477415512706119,-45.77757794379635
3.39,-0.061796663762261866,-43.763438277268286
3.4,-0.054175267206307234,-45.80808900246437
3.41,-0.04881917239746254,-43.64135678855632
3.42,-0.06271814243905235,-45.716555826460315
3.43,-0.07415983600920087,-43.82446039460433
3.44,-0.0759835958903487,-45.716555826460315
3.45,-0.08393134947766663,-43.73292721860027
3.46,-0.09109200669522602,-45.68604476779229
3.47,-0.09262780448987683,-43.70237890589236
3.48,-0.0920134853720165,-45.74706688512833
3.49,-0.09078484713629585,-43.79394933593631
3.5,-0.09399082503262941,-45.83863731517228
3.51,-0.09232064493094666,-43.70237890589236
3.52,-0.12695288520032239,-45.716555826460315
3.53,-0.10696831639742874,-43.79394933593631
3.54,0.1428291949025251,-45.74706688512833
3.55,0.558627250331798,-43.763438277268286
3.56,0.5691474652251561,-45.716555826460315
3.57,0.01541557036380748,-43.73292721860027
3.58,-0.31036553682649504,-45.77757794379635
3.59,-0.21332231367699717,-43.85497145327235
3.6,-0.09963488192797114,-45.74706688512833
3.61,-0.06302530199798251,-43.73292721860027
3.62,-0.07141459745126255,-45.80808900246437
3.63,-0.06546338099699067,-43.79394933593631
3.64,-0.058897845424858465,-45.716555826460315
3.65,-0.053560948088446914,-43.67186784722434
3.66,-0.04958707129478795,-45.77757794379635
3.67,-0.04455733351730655,-43.67186784722434
3.68,-0.03829895750410451,-45.77757794379635
3.69,-0.03417150093098047,-43.82446039460433
3.7,-0.02562862569823535,-45.77757794379635
3.71,-0.016778590906560073,-43.82446039460433
3.72,-0.007467816776489551,-45.83863731517228
3.73,0.003205977896333561,-43.70237890589236
3.74,0.01556915014327256,-45.77757794379635
3.75,0.028373864256173668,-43.70237890589236
3.76,0.047916891193105195,-45.74706688512833
3.77,0.07003237943607682,-43.85497145327235
3.78,0.09521946326835007,-45.716555826460315
3.79,0.1275672043181827,-43.85497145327235
3.8,0.15670896747168175,-45.74706688512833
3.81,0.184026970744033,-43.763438277268286
3.82,0.1969852646363992,-45.74706688512833
3.83,0.19303058531517336,-43.79394933593631
3.84,0.1585327273528296,-45.77757794379635
3.85,0.10314801938323485,-43.763438277268286
3.86,0.051122869089438756,-45.716555826460315
3.87,0.007333434469457605,-43.79394933593631
3.88,-0.026857263933955995,-45.716555826460315
3.89,-0.052946628970586586,-43.70237890589236
3.9,-0.06836219933439407,-45.716555826460315
3.91,-0.0738526764502707,-43.70237890589236
3.92,-0.07888241422775209,-45.77757794379635
3.93,-0.08300987080087614,-43.82446039460433
3.94,-0.07903599400721718,-45.83863731517228
3.95,-0.07949673334561243,-43.88548251194037
3.96,-0.07690507456713919,-45.74706688512833
3.97,-0.07675149478767411,-43.82446039460433
3.98,-0.07477415512706119,-45.74706688512833
3.99,-0.07354551689134055,-43.763438277268286
4.0,-0.07369909667080562,-45.80808900246437
4.01,-0.07567643633141855,-43.70237890589236
4.02,-0.07705865434660426,-45.83863731517228
4.03,-0.07826809510989177,-43.82446039460433
4.04,-0.08103253114026322,-45.68604476779229
4.05,-0.08285629102141107,-43.79394933593631
4.06,-0.08667658803560495,-45.80808900246437
4.07,-0.08667658803560495,-43.88548251194037
4.08,-0.08636942847667478,-45.716555826460315
4.09,-0.08667658803560495,-43.85497145327235
4.1,-0.08957540637300834,-45.74706688512833
4.11,-0.08788602879889246,-43.79394933593631
4.12,-0.08957540637300834,-45.65553370912427
4.13,-0.09262780448987683,-43.79394933593631
4.14,-0.09262780448987683,-45.83863731517228
4.15,-0.09262780448987683,-43.763438277268286
4.16,-0.09353008569423417,-45.716555826460315
4.17,-0.09521946326835007,-43.88548251194037
4.18,-0.09537304304781515,-45.77757794379635
4.19,-0.09399082503262941,-43.73292721860027
4.2,-0.09857902094414871,-45.74706688512833
4.21,-0.09932772236904097,-43.79394933593631
4.22,-0.09598736216567547,-45.74706688512833
4.23,-0.09506588348888498,-43.70237890589236
4.24,-0.09642890403163758,-45.716555826460315
4.25,-0.09811828160575346,-43.82446039460433
4.26,-0.09719680292896297,-45.80808900246437
4.27,-0.09948130214850605,-43.79394933593631
4.28,-0.09796470182628839,-45.74706688512833
4.29,-0.09811828160575346,-43.79394933593631
4.3,-0.09811828160575346,-45.68604476779229
4.31,-0.09948130214850605,-43.763438277268286
4.32,-0.09445156437102466,-45.74706688512833
4.33,-0.07918957378668226,-43.82446039460433
4.34,-0.06638485967378115,-45.74706688512833
4.35,-0.060433643219509274,-43.73292721860027
4.36,-0.06333246155691268,-45.77757794379635
4.37,-0.07782655324392967,-43.82446039460433
4.38,-0.08529437002041922,-45.77757794379635
4.39,-0.08560152957934938,-43.79394933593631
4.4,-0.09673606359056773,-45.68604476779229
4.41,-0.09902056281011082,-43.763438277268286
4.42,-0.09598736216567547,-45.80808900246437
4.43,-0.10009562126636638,-43.73292721860027
4.44,-0.09963488192797114,-45.74706688512833
4.45,-0.10055636060476161,-43.763438277268286
4.46,-0.11458971295338337,-45.80808900246437
4.47,-0.1484732517978668,-43.85497145327235
4.48,-0.04989423085371811,-45.83863731517228
4.49,0.3149345352655812,-43.79394933593631
4.5,0.6660371085951889,-45.68604476779229
4.51,0.37246936014768706,-43.82446039460433
4.52,-0.20996275600119851,-45.74706688512833
4.53,-0.3065452398123012,-43.763438277268286
4.54,-0.15288867045748789,-45.68604476779229
4.55,-0.07782655324392967,-43.73292721860027
4.56,-0.07400625622973578,-45.77757794379635
4.57,-0.08162765278569041,-43.73292721860027
4.58,-0.07293119777348021,-45.74706688512833
4.59,-0.06697998131920833,-43.82446039460433
4.6,-0.06271814243905235,-45.62498539641636
4.61,-0.060126483660579114,-43.82446039460433
4.62,-0.054175267206307234,-45.74706688512833
4.63,-0.04684183273684963,-43.85497145327235
4.64,-0.04425017395837639,-45.74706688512833
4.65,-0.036014458284561436,-43.82446039460433
4.66,-0.02793232239021156,-45.74706688512833
4.67,-0.018928707819071203,-43.67186784722434
4.68,-0.009464353909535601,-45.83863731517228
4.69,0.0041274565731240455,-43.79394933593631
4.7,0.0218275261564746,-45.68604476779229
4.71,0.039066856401429914,-43.82446039460433
4.72,0.06607770011485099,-45.68604476779229
4.73,0.09627532425217249,-43.88548251194037
4.74,0.12818152343604303,-45.716555826460315
4.75,0.15976136558855025,-43.79394933593631
4.76,0.1824911729493822,-45.716555826460315
4.77,0.19256984597677812,-43.763438277268286
4.78,0.1811281524066296,-45.716555826460315
4.79,0.1370315582277183,-43.73292721860027
4.8,0.08057179180186799,-45.65553370912427
4.81,0.03357637928555328,-43.88548251194037
4.82,-0.011748853129078677,-45.68604476779229
4.83,-0.042867955943190664,-43.79394933593631
4.84,-0.06638485967378115,-45.74706688512833
4.85,-0.0796503131250775,-43.82446039460433
4.86,-0.08514079024095414,-45.716555826460315
4.87,-0.09017052801843553,-43.82446039460433
4.88,-0.08819318835782262,-45.716555826460315
4.89,-0.09017052801843553,-43.79394933593631
4.9,-0.08942182659354327,-45.77757794379635
4.91,-0.08667658803560495,-43.85497145327235
4.92,-0.08437289134362874,-45.74706688512833
4.93,-0.08331703035980631,-43.763438277268286
4.94,-0.08285629102141107,-45.74706688512833
4.95,-0.0854479497998843,-43.82446039460433
4.96,-0.08498721046148906,-45.74706688512833
4.97,-0.0869837475945351,-43.70237890589236
4.98,-0.0883467681372877,-45.68604476779229
4.99,-0.09306934635583894,-43.763438277268286
5.0,-0.0927813842693419,-45.74706688512833
5.01,-0.09552662282728022,-43.763438277268286
5.02,-0.09475872392995482,-45.68604476779229
5.03,-0.09735038270842807,-43.85497145327235
5.04,-0.09796470182628839,-45.65553370912427
5.05,-0.09842544116468363,-43.79394933593631
5.06,-0.09658248381110265,-45.77757794379635
5.07,-0.09796470182628839,-43.79394933593631
5.08,-0.10117067972262195,-45.68604476779229
5.09,-0.09827186138521854,-43.85497145327235
5.1,-0.09994204148690129,-45.65553370912427
5.11,-0.1007099403842267,-43.79394933593631
5.12,-0.09932772236904097,-45.77757794379635
5.13,-0.09796470182628839,-43.79394933593631
5.14,-0.09932772236904097,-45.74706688512833
5.15,-0.09978846170743622,-43.763438277268286
5.16,-0.10024920104583146,-45.62498539641636
5.17,-0.0991741425895759,-43.79394933593631
5.18,-0.09948130214850605,-45.716555826460315
5.19,-0.10117067972262195,-43.82446039460433
5.2,-0.10191938114751421,-45.74706688512833
5.21,-0.10101709994315686,-43.79394933593631
5.22,-0.10391591828056027,-45.68604476779229
5.23,-0.10483739695735074,-43.79394933593631
5.24,-0.10422307783949042,-45.716555826460315
5.25,-0.10589325794117317,-43.82446039460433
5.26,-0.10391591828056027,-45.62498539641636
5.27,-0.10437665761895551,-43.85497145327235
5.28,-0.10391591828056027,-45.74706688512833
5.29,-0.10376233850109517,-43.82446039460433
5.3,-0.10391591828056027,-45.68604476779229
5.31,-0.09978846170743622,-43.763438277268286
5.32,-0.1028408598243047,-45.716555826460315
5.33,-0.10101709994315686,-43.79394933593631
5.34,-0.08636942847667478,-45.716555826460315
5.35,-0.07354551689134055,-43.73292721860027
5.36,-0.06028006344004419,-45.716555826460315
5.37,-0.06056802552654122,-43.85497145327235
5.38,-0.08193481234462058,-45.74706688512833
5.39,-0.0854479497998843,-43.79394933593631
5.4,-0.08850034791675278,-45.65553370912427
5.41,-0.09719680292896297,-43.88548251194037
5.42,-0.10406949806002534,-45.68604476779229
5.43,-0.10222654070644437,-43.916030824648274
5.44,-0.10040278082529654,-45.68604476779229
5.45,-0.10330159916269993,-43.916030824648274
5.46,-0.10178499884048227,-45.62498539641636
5.47,-0.12084808896658542,-43.88548251194037
5.48,-0.15167922969420036,-45.716555826460315
5.49,-0.03952759573982516,-43.763438277268286
5.5,0.3286799255277059,-45.65553370912427
5.51,0.6561312128196912,-43.916030824648274
5.52,0.3369156412015209,-45.65553370912427
5.53,-0.22338178923195995,-43.82446039460433
5.54,-0.30105476269642456,-45.65553370912427
5.55,-0.14998985212008448,-43.763438277268286
5.56,-0.07813371280285983,-45.716555826460315
5.57,-0.07477415512706119,-43.79394933593631
5.58,-0.08162765278569041,-45.74706688512833
5.59,-0.0701859592155419,-43.85497145327235
5.6,-0.06392758320233986,-45.68604476779229
5.61,-0.06028006344004419,-43.763438277268286
5.62,-0.0556918675285249,-45.716555826460315
5.63,-0.04837763053150044,-43.763438277268286
5.64,-0.042272834297763476,-45.83863731517228
5.65,-0.03891327662196484,-43.82446039460433
5.66,-0.028527444035638748,-45.68604476779229
5.67,-0.01831438870121088,-43.70237890589236
5.68,-0.007333434469457605,-45.77757794379635
5.69,0.0019773396606129145,-43.82446039460433
5.7,0.01587630970220272,-45.74706688512833
5.71,0.03204058149090247,-43.82446039460433
5.72,0.05248588963219135,-45.716555826460315
5.73,0.07751939368499951,-43.82446039460433
5.74,0.1072754759563589,-45.716555826460315
5.75,0.13962321700619154,-43.85497145327235
5.76,0.17120305915869877,-45.68604476779229
5.77,0.1948543451963212,-43.763438277268286
5.78,0.2079854163405856,-45.77757794379635
5.79,0.1969852646363992,-43.79394933593631
5.8,0.15686254725114684,-45.716555826460315
5.81,0.10299443960376978,-43.85497145327235
5.82,0.05217873007326118,-45.77757794379635
5.83,0.012363172246939001,-43.82446039460433
5.84,-0.01631785156816483,-45.77757794379635
5.85,-0.037223899047848945,-43.82446039460433
5.86,-0.05050854997157843,-45.65553370912427
5.87,-0.05615260686692015,-43.88548251194037
5.88,-0.058897845424858465,-45.716555826460315
5.89,-0.05843710608646322,-43.79394933593631
5.9,-0.05507754841066458,-45.68604476779229
5.91,-0.05310020875005167,-43.763438277268286
5.92,-0.052639469411656425,-45.74706688512833
5.93,-0.049740651074253024,-43.82446039460433
5.94,-0.0486847900904306,-45.65553370912427
5.95,-0.04837763053150044,-43.82446039460433
5.96,-0.049740651074253024,-45.68604476779229
5.97,-0.051122869089438756,-43.763438277268286
5.98,-0.05463600654470248,-45.74706688512833
5.99,-0.05584544730798999,-43.82446039460433
6.0,-0.05630618664638523,-45.68604476779229
6.01,-0.057669207189137824,-43.85497145327235
6.02,-0.06302530199798251,-45.716555826460315
6.03,-0.06438832254073511,-43.79394933593631
6.04,-0.06759430043706867,-45.65553370912427
6.05,-0.07049311877447206,-43.85497145327235
6.06,-0.07141459745126255,-45.563963279080326
6.07,-0.07323835733241038,-43.763438277268286
6.08,-0.07675149478767411,-45.68604476779229
6.09,-0.07857525466882194,-43.79394933593631
6.1,-0.07934315356614734,-45.716555826460315
6.11,-0.08118611091972831,-43.85497145327235
6.12,-0.08162765278569041,-45.716555826460315
6.13,-0.08239555168301582,-43.85497145327235
6.14,-0.0846800509025589,-45.65553370912427
6.15,-0.08529437002041922,-43.916030824648274
6.16,-0.08421931156416365,-45.65553370912427
6.17,-0.08437289134362874,-43.79394933593631
6.18,-0.08514079024095414,-45.68604476779229
6.19,-0.08590868913827954,-43.916030824648274
6.2,-0.08788602879889246,-45.716555826460315
6.21,-0.08727170968103214,-43.79394933593631
6.22,-0.08819318835782262,-45.77757794379635
6.23,-0.08880750747568295,-43.85497145327235
6.24,-0.09032410779790062,-45.65553370912427
6.25,-0.08957540637300834,-43.85497145327235
6.26,-0.09003614571140359,-45.716555826460315
6.27,-0.08926824681407819,-43.79394933593631
6.28,-0.07552285655195345,-45.68604476779229
6.29,-0.04409659417891131,-43.85497145327235
6.3,-0.008235715673814955,-45.594474337748345
6.31,0.005644056895341717,-43.88548251194037
6.32,-0.01631785156816483,-45.74706688512833
6.33,-0.022269068022436708,-43.763438277268286
6.34,-0.010232252806861004,-45.74706688512833
6.35,-0.017700069583350558,-43.82446039460433
6.36,-0.023497706258157353,-45.716555826460315
6.37,-0.02593578525716551,-43.88548251194037
6.38,-0.029448922712429233,-45.716555826460315
6.39,-0.031119102814111985,-43.88548251194037
6.4,-0.03845253728356959,-45.68604476779229
6.41,-0.0636204236434097,-43.85497145327235
6.42,-0.10437665761895551,-45.74706688512833
6.43,0.004281036352589126,-43.88548251194037
6.44,0.3878849305114946,-45.74706688512833
6.45,0.7492005591755302,-43.85497145327235
6.46,0.4414458785999415,-45.62498539641636
6.47,-0.1573232865895421,-43.82446039460433
6.48,-0.2317902821576731,-45.594474337748345
6.49,-0.05402168742684215,-43.88548251194037
6.5,-0.014186932128086834,-45.74706688512833
6.51,-0.04989423085371811,-43.82446039460433
6.52,-0.04471091329677163,-45.74706688512833
6.53,-0.028681023815103828,-43.82446039460433
6.54,-0.025167886359840106,-45.62498539641636
6.55,-0.012516752026404081,-43.82446039460433
6.56,-0.000614319117860323,-45.74706688512833
6.57,0.0007678988973254037,-43.82446039460433
6.58,0.0027452385579383185,-45.68604476779229
6.59,-0.0015166003222176724,-43.88548251194037
6.6,0.000614319117860323,-45.716555826460315
6.61,0.0016701801016827532,-43.88548251194037
6.62,0.028373864256173668,-45.74706688512833
6.63,0.051717990734865944,-43.85497145327235
6.64,0.02198110593593968,-45.594474337748345
6.65,0.02747158305181632,-43.916030824648274
6.66,0.07415983600920087,-45.62498539641636
6.67,0.10604683772063826,-43.88548251194037
6.68,0.13428631966977997,-45.716555826460315
6.69,0.1637352423822092,-43.85497145327235
6.7,0.18859596918311916,-45.716555826460315
6.71,0.20524017778264728,-43.79394933593631
6.72,0.21301515411806698,-45.68604476779229
6.73,0.1986746422105151,-43.85497145327235
6.74,0.1565553876922167,-45.65553370912427
6.75,0.10086352016369178,-43.88548251194037
6.76,0.048531210310965515,-45.65553370912427
6.77,0.003205977896333561,-43.88548251194037
6.78,-0.030677560948149878,-45.65553370912427
6.79,-0.054482426765237395,-43.85497145327235
6.8,-0.06713356109867342,-45.68604476779229
6.81,-0.07323835733241038,-43.82446039460433
6.82,-0.07218249634858795,-45.74706688512833
6.83,-0.06882293867278931,-43.82446039460433
6.84,-0.06484906187913035,-45.68604476779229
6.85,-0.06454190232020018,-43.88548251194037
6.86,-0.0651562214380605,-45.53345222041231
6.87,-0.06469548209966526,-43.82446039460433
6.88,-0.06454190232020018,-45.68604476779229
6.89,-0.07033953899500699,-43.85497145327235
6.9,-0.07567643633141855,-45.74706688512833
6.91,-0.07446699556813102,-43.85497145327235
6.92,-0.07462057534759611,-45.716555826460315
6.93,-0.07767297346446458,-43.79394933593631
6.94,-0.0825491314624809,-45.716555826460315
6.95,-0.08529437002041922,-43.85497145327235
6.96,-0.0883467681372877,-45.62498539641636
6.97,-0.08865392769621785,-43.88548251194037
6.98,-0.08926824681407819,-45.65553370912427
6.99,-0.09247422471041175,-43.82446039460433
7.0,-0.0941444048120945,-45.68604476779229
7.01,-0.09337650591476909,-43.79394933593631
7.02,-0.09399082503262941,-45.68604476779229
7.03,-0.09475872392995482,-43.79394933593631
7.04,-0.09902056281011082,-45.65553370912427
7.05,-0.10222654070644437,-43.763438277268286
7.06,-0.10620041750010334,-45.68604476779229
7.07,-0.1049717792643827,-43.82446039460433
7.08,-0.1049717792643827,-45.716555826460315
7.09,-0.10543251860277793,-43.82446039460433
7.1,-0.10758263551528906,-45.68604476779229
7.11,-0.10650757705903349,-43.85497145327235
7.12,-0.10758263551528906,-45.65553370912427
7.13,-0.11048145385269247,-43.82446039460433
7.14,-0.10345517894216502,-45.716555826460315
7.15,-0.09185990559255142,-43.88548251194037
7.16,-0.08147407300622533,-45.716555826460315
7.17,-0.07126101767179746,-43.88548251194037
7.18,-0.07918957378668226,-45.65553370912427
7.19,-0.09673606359056773,-43.82446039460433
7.2,-0.10117067972262195,-45.77757794379635
7.21,-0.11443613317391829,-43.88548251194037
7.22,-0.12772078409764778,-45.65553370912427
7.23,-0.1310803417734464,-43.916030824648274
7.24,-0.1391624776677963,-45.68604476779229
7.25,-0.14647671466482076,-43.88548251194037
7.26,-0.14878041135679698,-45.62498539641636
7.27,-0.15427088847267362,-43.916030824648274
7.28,-0.19088046840266223,-45.62498539641636
7.29,-0.17227811761495432,-43.88548251194037
7.3,0.07721223412606934,-45.65553370912427
7.31,0.5024746434648779,-43.82446039460433
7.32,0.5157400969161743,-45.68604476779229
7.33,-0.035707298725631276,-43.916030824648274
7.34,-0.359952608121283,-45.563963279080326
7.35,-0.26321654453071525,-43.916030824648274
7.36,-0.15029701167901466,-45.716555826460315
7.37,-0.11718137173185661,-43.88548251194037
7.38,-0.12313258818612849,-45.68604476779229
7.39,-0.11948506842383282,-43.85497145327235
7.4,-0.10817775716071625,-45.62498539641636
7.41,-0.1036087587216301,-43.82446039460433
7.42,-0.10009562126636638,-45.62498539641636
7.43,-0.0970432231494979,-43.85497145327235
7.44,-0.09383724525316434,-45.65553370912427
7.45,-0.0846800509025589,-43.88548251194037
7.46,-0.07705865434660426,-45.68604476779229
7.47,-0.06928367801118455,-43.88548251194037
7.48,-0.06225740310065711,-45.65553370912427
7.49,-0.05248588963219135,-43.88548251194037
7.5,-0.03952759573982516,-45.68604476779229
7.51,-0.023190546699227193,-43.85497145327235
7.52,-0.003513137455263722,-45.594474337748345
7.53,0.02152036659754444,-43.79394933593631
7.54,0.04776331141364011,-45.65553370912427
7.55,0.08147407300622533,-43.85497145327235
7.56,0.11779569084971693,-45.716555826460315
7.57,0.14357789632741735,-43.79394933593631
7.58,0.159300626250155,-45.74706688512833
7.59,0.15381014913427837,-43.94654188331629
7.6,0.1202337698487251,-45.563963279080326
7.61,0.0665192419808131,-43.85497145327235
7.62,0.013572613010226511,-45.68604476779229
7.63,-0.026550104375025835,-43.85497145327235
7.64,-0.057976366748067984,-45.65553370912427
7.65,-0.08193481234462058,-43.73292721860027
7.66,-0.09842544116468363,-45.68604476779229
7.67,-0.10558609838224302,-43.79394933593631
7.68,-0.10604683772063826,-45.62498539641636
7.69,-0.1057396781617081,-43.94654188331629
7.7,-0.10422307783949042,-45.62498539641636
7.71,-0.10314801938323485,-43.82446039460433
7.72,-0.09932772236904097,-45.65553370912427
7.73,-0.09658248381110265,-43.916030824648274
7.74,-0.09429798459155958,-45.53345222041231
7.75,-0.09322292613530402,-43.94654188331629
7.76,-0.0941444048120945,-45.65553370912427
7.77,-0.09383724525316434,-43.763438277268286
7.78,-0.09247422471041175,-45.68604476779229
7.79,-0.09032410779790062,-43.79394933593631
7.8,-0.09109200669522602,-45.62498539641636
7.81,-0.0927813842693419,-43.94654188331629
7.82,-0.09688964337003282,-45.53345222041231
7.83,-0.0949123037094199,-43.85497145327235
7.84,-0.09475872392995482,-45.563963279080326
7.85,-0.09598736216567547,-43.85497145327235
7.86,-0.09627532425217249,-45.594474337748345
7.87,-0.0927813842693419,-44.00756400065234
7.88,-0.0927813842693419,-45.62498539641636
7.89,-0.09293496404880698,-43.82446039460433
7.9,-0.0920134853720165,-45.68604476779229
7.91,-0.07798013302339475,-43.916030824648274
7.92,-0.06484906187913035,-45.65553370912427
7.93,-0.060126483660579114,-43.97705294198431
7.94,-0.052025150293796105,-45.563963279080326
7.95,-0.05843710608646322,-43.94654188331629
7.96,-0.07508131468599136,-45.68604476779229
7.97,-0.07903599400721718,-43.94654188331629
7.98,-0.08498721046148906,-45.53345222041231
7.99,-0.0869837475945351,-43.916030824648274
8.0,-0.08560152957934938,-45.594474337748345
8.01,-0.08437289134362874,-43.85497145327235
8.02,-0.08208839212408565,-45.65553370912427
8.03,-0.07934315356614734,-43.916030824648274
8.04,-0.08437289134362874,-45.62498539641636
8.05,-0.11643267030696434,-43.916030824648274
8.06,-0.07567643633141855,-45.62498539641636
8.07,0.20583529942807446,-43.916030824648274
8.08,0.6030310040696396,-45.594474337748345
8.09,0.5169687351518949,-43.88548251194037
8.1,-0.03509297960777095,-45.65553370912427
8.11,-0.2786321148945227,-43.916030824648274
8.12,-0.17623279693618016,-45.563963279080326
8.13,-0.07567643633141855,-43.916030824648274
8.14,-0.03952759573982516,-45.62498539641636
8.15,-0.04150493540043807,-43.916030824648274
8.16,-0.041658515179903155,-45.62498539641636
8.17,-0.032808480388227874,-43.94654188331629
8.18,-0.026550104375025835,-45.62498539641636
8.19,-0.02121320703861428,-43.88548251194037
8.2,-0.017085750465490233,-45.62498539641636
8.21,-0.013419033230761431,-43.88548251194037
8.22,-0.007928556114884794,-45.65553370912427
8.23,-0.003205977896333561,-43.94654188331629
8.24,0.005644056895341717,-45.53345222041231
8.25,0.015261990584342399,-44.00756400065234
8.26,0.027010843713421075,-45.50294116174429
8.27,0.039220436180895,-43.82446039460433
8.28,0.055231128190129666,-45.594474337748345
8.29,0.07629075544927887,-43.88548251194037
8.3,0.09932772236904097,-45.53345222041231
8.31,0.13000528331719086,-43.82446039460433
8.32,0.16037568470641056,-45.62498539641636
8.33,0.18798165006525883,-43.94654188331629
8.34,0.20996275600119851,-45.47243010307626
8.35,0.21545323311707515,-43.88548251194037
8.36,0.19516150475525135,-45.68604476779229
8.37,0.15198638925313054,-43.97705294198431
8.38,0.1007099403842267,-45.62498539641636
8.39,0.053253788529516746,-43.73292721860027
8.4,0.017546489803885474,-45.53345222041231
8.41,-0.006872695131062363,-43.94654188331629
8.42,-0.023190546699227193,-45.563963279080326
8.43,-0.03188700171143739,-43.916030824648274
8.44,-0.03768463838624419,-45.62498539641636
8.45,-0.03783821816570927,-43.916030824648274
8.46,-0.037223899047848945,-45.594474337748345
8.47,-0.03829895750410451,-43.88548251194037
8.48,-0.03662877740242176,-45.62498539641636
8.49,-0.03234774104983263,-43.88548251194037
8.5,-0.029909662050824477,-45.68604476779229
8.51,-0.029756082271359396,-43.85497145327235
8.52,-0.02777874261074648,-45.53345222041231
8.53,-0.03083114072761496,-43.916030824648274
8.54,-0.029141763153499072,-45.53345222041231
8.55,-0.028527444035638748,-43.79394933593631
8.56,-0.03098472050708004,-45.68604476779229
8.57,-0.03173342193197231,-43.82446039460433
8.58,-0.03083114072761496,-45.68604476779229
8.59,-0.03234774104983263,-43.94654188331629
8.6,-0.03401792115151538,-45.62498539641636
8.61,-0.03296206016769296,-43.88548251194037
8.62,-0.03463224026937571,-45.594474337748345
8.63,-0.035400139166701115,-43.97705294198431
8.64,-0.03509297960777095,-45.563963279080326
8.65,-0.03586087850509635,-43.88548251194037
8.66,-0.03447866048991063,-45.50294116174429
8.67,-0.03478582004884079,-43.97705294198431
8.68,-0.03616803806402651,-45.50294116174429
8.69,-0.033115639947158035,-43.97705294198431
8.7,-0.02013814858235871,-45.68604476779229
8.71,-0.008082135894349874,-43.88548251194037
8.72,-0.004434616132054207,-45.53345222041231
8.73,0.002438078999008157,-43.916030824648274
8.74,-0.0036667172347288027,-45.563963279080326
8.75,-0.020445308141288875,-43.94654188331629
8.76,-0.023036966919762113,-45.53345222041231
8.77,-0.029295342932964152,-44.00756400065234
8.78,-0.03432508071044555,-45.50294116174429
8.79,-0.03493939982830587,-43.94654188331629
8.8,-0.036014458284561436,-45.62498539641636
8.81,-0.03845253728356959,-43.97705294198431
8.82,-0.039220436180895,-45.47243010307626
8.83,-0.045632391973562114,-43.916030824648274
8.84,-0.08285629102141107,-45.50294116174429
8.85,-0.05004781063318319,-43.94654188331629
8.86,0.22689492668722366,-45.50294116174429
8.87,0.6455918004539001,-43.97705294198431
8.88,0.5935666501601039,-45.50294116174429
8.89,0.013572613010226511,-43.88548251194037
8.9,-0.2593962475165214,-45.563963279080326
8.91,-0.1397767967856566,-43.916030824648274
8.92,-0.03388353884448344,-45.50294116174429
8.93,-0.009310774130070521,-43.916030824648274
8.94,-0.014647671466482076,-45.563963279080326
8.95,-0.010673794672823112,-43.97705294198431
8.96,-0.0019773396606129145,-45.50294116174429
8.97,-0.0007678988973254037,-43.85497145327235
8.98,0.0038202970141938838,-45.563963279080326
8.99,0.008542875232745117,-43.916030824648274
9.0,0.010673794672823112,-45.62498539641636
9.01,0.01572272992273764,-43.97705294198431
9.02,0.023344126478692273,-45.53345222041231
9.03,0.029448922712429233,-43.916030824648274
9.04,0.037531058606779105,-45.53345222041231
9.05,0.0491263319563927,-43.916030824648274
9.06,0.06087518508547138,-45.53345222041231
9.07,0.07369909667080562,-43.88548251194037
9.08,0.08896108725514802,-45.62498539641636
9.09,0.11199805417491014,-43.94654188331629
9.1,0.14083265776947904,-45.50294116174429
9.11,0.1708958995997686,-44.00756400065234
9.12,0.19988408297380258,-45.50294116174429
9.13,0.22186518890974227,-43.97705294198431
9.14,0.22902584612730167,-45.47243010307626
9.15,0.21026991556012867,-43.97705294198431
9.16,0.16632690116068244,-45.47243010307626
9.17,0.11353385196956094,-43.88548251194037
9.18,0.06987879965661174,-45.50294116174429
9.19,0.032501320829297714,-43.88548251194037
9.2,0.0038202970141938838,-45.47243010307626
9.21,-0.012209592467473919,-43.94654188331629
9.22,-0.02152036659754444,-45.50294116174429
9.23,-0.028373864256173668,-43.916030824648274
9.24,-0.032808480388227874,-45.50294116174429
9.25,-0.03401792115151538,-44.00756400065234
9.26,-0.031119102814111985,-45.50294116174429
9.27,-0.030370401389219717,-43.916030824648274
9.28,-0.030677560948149878,-45.53345222041231
9.29,-0.029602502491894313,-43.94654188331629
9.3,-0.0276251628312814,-45.563963279080326
9.31,-0.028373864256173668,-43.97705294198431
9.32,-0.03173342193197231,-45.563963279080326
9.33,-0.032194161270367554,-43.916030824648274
9.34,-0.033422799506088195,-45.53345222041231
9.35,-0.03647519762295668,-43.88548251194037
9.36,-0.037223899047848945,-45.50294116174429
9.37,-0.041351355620972995,-43.97705294198431
9.38,-0.04332869528158591,-45.53345222041231
9.39,-0.04592035406005914,-44.00756400065234
9.4,-0.047916891193105195,-45.47243010307626
9.41,-0.0486847900904306,-43.94654188331629
9.42,-0.04699541251631471,-45.50294116174429
9.43,-0.052025150293796105,-44.038075059320356
9.44,-0.05584544730798999,-45.47243010307626
9.45,-0.057381245102640796,-44.00756400065234
9.46,-0.05812994652753306,-45.563963279080326
9.47,-0.05951216454271879,-43.97705294198431
9.48,-0.06195024354172694,-45.53345222041231
9.49,-0.06056802552654122,-43.97705294198431
9.5,-0.06133592442386662,-45.441881790368356
9.51,-0.06195024354172694,-43.916030824648274
9.52,-0.06302530199798251,-45.50294116174429
9.53,-0.06530980121752558,-44.038075059320356
9.54,-0.05692050576424555,-45.50294116174429
9.55,-0.04592035406005914,-43.94654188331629
9.56,-0.042867955943190664,-45.47243010307626
9.57,-0.035400139166701115,-43.94654188331629
9.58,-0.046688252957384546,-45.50294116174429
9.59,-0.06225740310065711,-43.916030824648274
9.6,-0.06577054055592083,-45.50294116174429
9.61,-0.07339193711187546,-44.00756400065234
9.62,-0.08285629102141107,-45.563963279080326
9.63,-0.08118611091972831,-43.916030824648274
9.64,-0.08057179180186799,-45.53345222041231
9.65,-0.08347061013927139,-44.00756400065234
9.66,-0.08437289134362874,-45.50294116174429
9.67,-0.08803960857835753,-44.00756400065234
9.68,-0.12908380464040037,-45.441881790368356
9.69,-0.11505045229177861,-43.97705294198431
9.7,0.13962321700619154,-45.563963279080326
9.71,0.5862332156906463,-43.97705294198431
9.72,0.6153941763165786,-45.47243010307626
9.73,0.020598887920753955,-44.00756400065234
9.74,-0.3257811071903025,-45.441881790368356
9.75,-0.19913538154891033,-44.00756400065234
9.76,-0.07888241422775209,-45.62498539641636
9.77,-0.058590685865928305,-44.00756400065234
9.78,-0.06928367801118455,-45.50294116174429
9.79,-0.06500264165859543,-43.916030824648274
9.8,-0.05843710608646322,-45.563963279080326
9.81,-0.05463600654470248,-44.038075059320356
9.82,-0.05127644886890383,-45.50294116174429
9.83,-0.04592035406005914,-44.00756400065234
9.84,-0.04089061628257775,-45.563963279080326
9.85,-0.033422799506088195,-44.16015654803232
9.86,-0.02532146613930519,-45.53345222041231
9.87,-0.018621548260141042,-44.00756400065234
9.88,-0.007928556114884794,-45.563963279080326
9.89,0.0030523981168684797,-44.00756400065234
9.9,0.011441693570148516,-45.441881790368356
9.91,0.023651286037622433,-44.16015654803232
9.92,0.04089061628257775,-45.441881790368356
9.93,0.06377400342287479,-44.038075059320356
9.94,0.09093842691576094,-45.47243010307626
9.95,0.1217695676433759,-43.916030824648274
9.96,0.15121849035580512,-45.50294116174429
9.97,0.17607921715671507,-44.00756400065234
9.98,0.18844238940365407,-45.441881790368356
9.99,0.1766935362745754,-44.038075059320356
