time_s,ECG1,ECG2,NIBP
0.0,-0.06601498862045957,0.2192257981956036,82.62304417747531
0.01,-0.060200456593144984,0.18969556460450357,87.20087857797814
0.02,-0.05849619720582864,0.1671176438233499,94.97633030723219
0.03,-0.1420049071843295,0.08431673798030025,103.98550840742176
0.04,-0.23017526783990155,0.037417119598449004,111.6488031938635
0.05,-0.2812027989071968,0.005573247482071752,116.83320065243295
0.06,-0.3751876915900834,-0.043058750485208755,119.80650409555953
0.07,-0.3972428130730008,-0.06332303274108518,121.17527658130989
0.08,-0.39258116239592966,-0.04711616583002991,121.2874335241222
0.09,-0.43027537002127936,-0.08937710992721203,120.3878890644234
0.1,-0.4245109632700623,-0.07258898407630877,118.43773160980919
0.11,-0.4331826360349367,-0.10443285619268602,114.98146663742956
0.12,-0.41869643124274775,-0.07954129688625512,110.7629922373662
0.13,-0.4030573451003154,-0.08127367647168439,106.52162866530033
0.14,-0.40651598915104564,-0.07664639942112993,102.79527146329103
0.15,-0.407668870501289,-0.09053962780690797,99.89063553617198
0.16,-0.3717290475393532,-0.056382117165253494,97.81458763554394
0.17,-0.39373404374617305,-0.0870634714019348,96.54652750660466
0.18,-0.3368919806515632,-0.03495531702968111,95.92851986253679
0.19,-0.3954884284095869,-0.0928532663321852,95.78431807892095
0.2,-0.3676689001754525,-0.058695755690530725,95.82780750572572
0.21,-0.3316789519374191,-0.05811449675068275,95.8621412637295
0.22,-0.37749345429057024,-0.07606514048128195,95.63782737810486
0.23,-0.3438593940291212,-0.061009394215807956,95.08848725004451
0.24,-0.3717290475393532,-0.07085660449087952,94.16834253554345
0.25,-0.3519796887569226,-0.07085660449087952,92.93232724740768
0.26,-0.3061651864037715,-0.03089790168485996,91.60933310566236
0.27,-0.2962905070125562,-0.0621719120955039,90.37560673472684
0.28,-0.25513765533647625,-0.03206041956455591,89.43257284822327
0.29,-0.21102741237064143,-0.0592770146303787,88.80540953535439
0.3,-0.1530324679257882,-0.01700467329908191,88.46664978971717
0.31,-0.2104760343335685,-0.03726895555495834,88.43460494891364
0.32,-0.23248103054038835,-0.004262565558885144,88.29955883409882
0.33,-0.30385942370328467,-0.04711616583002991,88.40027119090988
0.34,-0.31082683708084263,-0.05059232223500308,89.0732128477838
0.35,-0.3769420762534973,-0.11948860245816002,90.22911603391076
0.36,-0.3560398361208233,-0.08416857393680958,91.49717616285004
0.37,-0.3618543681481379,-0.09632942273715839,92.55236699216594
0.38,-0.36997466287593933,-0.09632942273715839,93.22530864903986
0.39,-0.36997466287593933,-0.11601244605318684,93.50455654747053
0.4,-0.3833079863178848,-0.11196642794248035,93.33746559185218
0.41,-0.42796960732079253,-0.11253628964821366,92.8659486486004
0.42,-0.3177441251823031,0.03626599895286772,92.29371934853754
0.43,0.39223028546324684,0.26264926017248164,91.62077769166362
0.44,1.5123297051388653,0.22849174953082718,90.81278991997488
0.45,1.7582944349494918,-0.16522570296031533,89.90408979147506
0.46,0.3522303151374103,-0.3342922738172731,88.96105590497147
0.47,-0.25919780270037696,-0.18607124415603973,88.00657743246664
0.48,-0.25162888600964844,-0.057533237810834775,87.23292341878165
0.49,-0.2812027989071968,-0.08358731499696162,86.52564800390397
0.5,-0.27598977019305265,-0.05290596076028031,85.98775246184489
0.51,-0.27253112614232244,-0.05059232223500308,85.4269677477833
0.52,-0.26380932810135055,-0.029746781039278677,84.8661830337217
0.53,-0.24295721324477412,-0.03495531702968111,84.29395373365884
0.54,-0.23423541520380226,-0.01931831182435914,83.81099220440579
0.55,-0.20987453102039802,-0.007738721963858323,83.49741054797136
0.56,-0.19709258561552545,0.01252556029201811,83.21587373234043
0.57,-0.18260638082333652,-0.001367668093759939,82.90229207590598
0.58,-0.15939837799017573,0.028151168263225414,82.54293207546651
0.59,-0.12170417036482599,0.039730758123726236,82.18357207502704
0.6,-0.09558890151800789,0.07563204558492463,81.8036118197853
0.61,-0.042255607750225826,0.09764010466034499,81.43280723334458
0.62,0.0012531319024384883,0.13931978981767915,81.1398258317124
0.63,0.040150346154129164,0.13527377170697266,80.94984570409153
0.64,0.11032573269068452,0.1995427748795751,81.03911347490133
0.65,0.15964900437066343,0.20185641340485236,82.05997054621346
0.66,0.17528809051309574,0.1977989980600312,85.26903246096595
0.67,0.17874673456382598,0.1520618975578759,91.72149004847468
0.68,0.14165403025164672,0.12311292290662386,100.4834650910371
0.69,0.06912275573850701,0.05074048627849374,108.92270280836406
0.7,-0.0010526307980483303,0.018315355222268518,115.10506816624313
0.71,-0.06947363267118979,-0.041326370899779495,118.90695963586073
0.72,-0.09789466421849471,-0.03322293744425186,120.96011836448625
0.73,-0.1570926152896889,-0.1021192176674088,121.6788383653652
0.74,-0.15649111197651844,-0.08358731499696162,121.38814588093327
0.75,-0.1449121731979868,-0.09053962780690797,120.08575199399021
0.76,-0.15649111197651844,-0.0870634714019348,117.35965160849078
0.77,-0.14952369859896042,-0.09401578421188116,113.36549109405206
0.78,-0.1460650545482302,-0.07606514048128195,108.87692446435904
0.79,-0.13734325650725832,-0.08879585098736405,104.61267172029065
0.8,-0.11824552631409577,-0.07432136366173803,101.01220496429518
0.81,-0.1309773464428708,-0.10559537407238197,98.37537234960554
0.82,-0.12170417036482599,-0.08937710992721203,96.75939680622804
0.83,-0.0926816355043506,-0.07606514048128195,95.83925209172698
0.84,-0.08977436949069331,-0.06159065315565593,95.43640266448273
0.85,-0.08285708138923285,-0.07375150195600472,95.35629056247393
0.86,-0.11533826030043846,-0.09170214568660393,95.33340139047141
0.87,-0.10837084692288047,-0.09749194061685433,95.17775502085432
0.88,-0.10140343354532248,-0.07837877900655918,94.68334890560001
0.89,-0.07353378003509049,-0.06563667126636241,93.82042712110523
0.9,-0.11243099428678117,-0.08358731499696162,92.60730100497199
0.91,-0.08922299145362036,-0.08243619435138033,91.2728622772254
0.92,-0.1048620775960527,-0.08358731499696162,90.05058049229115
0.93,-0.10140343354532248,-0.09806180232258764,89.18536979059611
0.94,-0.1338846124565281,-0.11601244605318684,88.70240826134307
0.95,-0.10721796557263706,-0.11080391006278441,88.55820647772723
0.96,-0.09619040483117837,-0.08879585098736405,88.70240826134307
0.97,-0.06776937328387345,-0.09227200739233724,89.13043577779008
0.98,-0.0016040088351212652,-0.0569519788709868,89.78048826266148
0.99,-0.006265659512192442,-0.08822598928163074,90.65485463315753
1.0,0.07669167242923548,-0.040163853020083545,91.77871297848097
1.01,0.06857137770143408,-0.06679918914605837,92.90028240660416
1.02,0.10045105329946923,0.029894945082769336,93.80898253510398
1.03,0.00010025055219507907,-0.041326370899779495,94.47047960597664
1.04,-0.045714251800956056,-0.04942980435530713,94.68334890560001
1.05,-0.09964904888190859,-0.12469713844856245,94.45903501997537
1.06,-0.114736756987268,-0.11717496393288279,93.86391654791001
1.07,-0.11298237232385411,-0.13048693337881287,93.05592877622125
1.08,-0.11298237232385411,-0.12006986139800799,92.15867323372271
1.09,-0.1269171990789701,-0.15016995669484132,91.13781616241057
1.1,-0.10952372827312389,-0.11890734351831204,90.17418202110473
1.11,-0.09558890151800789,-0.1287545537933836,89.17392520459485
1.12,-0.15824549663993231,-0.09632942273715839,88.25378049009379
1.13,0.06451123033753338,0.1034298995905954,87.48012647640881
1.14,0.889372773798644,0.25338330883725807,86.76140647552987
1.15,1.9224547141689339,0.10747591770130188,86.08846481865595
1.16,1.7199987240109715,-0.23180834465819503,85.4498569197858
1.17,0.36265637256569855,-0.36903104339877557,84.91196137772673
1.18,0.007669167242923549,-0.1385903668343405,84.49537844728097
1.19,0.005313279266339191,-0.09749194061685433,84.14746303284275
1.2,-0.03293230639608347,-0.09691068167700635,83.79954761840453
1.21,-0.04050122308681194,-0.08764473034178277,83.46307678996757
1.22,-0.024260633631209134,-0.04942980435530713,83.19527347753817
1.23,-0.05558893119217134,-0.08127367647168439,82.93662583390976
1.24,-0.021954870930722317,-0.03437405808983314,82.73520112028763
1.25,0.01288219595706766,-0.03089790168485996,82.61159959147405
1.26,0.02275687534828295,-0.007738721963858323,82.44221971865545
1.27,0.0256140160858427,-0.028003004219734756,82.21790583303081
1.28,0.07147864371509137,0.018315355222268518,81.90432417659636
1.29,0.06741849635119067,-0.001367668093759939,81.53351959015563
1.3,0.12365905613263004,0.06232007613899456,81.18560417571742
1.31,0.12365905613263004,0.04147453494327016,80.89491169128549
1.32,0.18050111922723985,0.1011048638312035,80.6591532196596
1.33,0.23563892293453334,0.11557935115682953,80.50121793284225
1.34,0.3069671908213321,0.1682687644689312,80.48977334684099
1.35,0.34696716114716863,0.1700125412884751,81.11922557691013
1.36,0.39283178877641733,0.20300753405043365,83.6645015035897
1.37,0.42531296768762294,0.1914279441899328,89.86975603347129
1.38,0.40671649025543577,0.15901421036782226,98.9476016496684
1.39,0.37077666729349995,0.10226738171089945,108.16964904948135
1.4,0.27914766258719764,0.05478650438920023,115.18289135105168
1.41,0.21243092010137254,-0.0025301859734558874,119.55930103793239
1.42,0.15323296903017836,-0.011796137308679476,122.11602155061321
1.43,0.07669167242923548,-0.08822598928163074,123.32914766674647
1.44,0.0627568456741195,-0.07317024301615674,123.37263709355125
1.45,0.07263152506533478,-0.07548388154143397,122.47538155105269
1.46,0.047669137568760095,-0.07664639942112993,120.36728880962113
1.47,0.09523802458532511,-0.06274177380123722,116.62948702161057
1.48,0.06621548972484972,-0.07027534555103154,112.18669873592258
1.49,0.0737844064155782,-0.08590095352223885,107.75535503623584
1.5,0.0819047011433796,-0.0621719120955039,103.86190687860818
1.51,0.06100246101070561,-0.1021192176674088,100.74211273466551
1.52,0.07839593181655183,-0.0720077251364608,98.56535247722641
1.53,0.09583952789849559,-0.07606514048128195,97.43233846310196
1.54,0.09348363992191124,-0.0621719120955039,96.94937693384891
1.55,0.11323299870434181,-0.06738044808590633,96.92877667904665
1.56,0.09639090593556852,-0.057533237810834775,97.10731222066626
1.57,0.08536334519410983,-0.08127367647168439,97.19657999147607
1.58,0.08656635182045078,-0.06563667126636241,96.90588750704414
1.59,0.090024995871181,-0.06621793020621039,96.2100566781677
1.6,0.08075181979313618,-0.06042813527595998,95.17775502085432
1.61,0.06566411168777679,-0.08300605605711364,93.9440286499188
1.62,0.08015031647996572,-0.061009394215807956,92.85450406259913
1.63,0.0749372877658216,-0.07664639942112993,92.18156240572522
1.64,0.0668169930380202,-0.07027534555103154,91.48573157684879
1.65,0.090024995871181,-0.07027534555103154,90.76701157596985
1.66,0.05463655094631809,-0.08648221246208682,90.26344979191452
1.67,0.09117787722142441,-0.06911282767133559,90.10551450509719
1.68,0.05288216628290421,-0.09227200739233724,90.27489437791579
1.69,0.11844602741848592,-0.056382117165253494,90.76701157596985
1.7,0.13353373552384531,-0.06332303274108518,91.5086207488513
1.71,0.20546350672381455,-0.025689365694457525,92.36009794734483
1.72,0.2211025928662469,-0.023375727169180294,93.34891017785344
1.73,0.2796990406242706,-0.030328039979126652,94.2690548923545
1.74,0.2518795123901362,-0.0025301859734558874,94.90766279122465
1.75,0.22576424354331806,-0.009482498783402245,95.14342126285055
1.76,0.15383447234334882,-0.028003004219734756,95.065598078042
1.77,0.1283207068097012,-0.057533237810834775,94.6604597335975
1.78,0.07318290310240771,-0.07606514048128195,94.02185183472736
1.79,0.08536334519410983,-0.08127367647168439,93.24819782104238
1.8,0.055789432296561504,-0.08300605605711364,92.41732087735112
1.81,0.08130319783020913,-0.08300605605711364,91.52006533485256
1.82,0.08305758249362301,-0.0720077251364608,90.59992062035148
1.83,0.0929322618848383,-0.07375150195600472,89.7232653326552
1.84,0.03779445817754481,-0.08243619435138033,88.88323272016292
1.85,0.040701724191202104,-0.016423414359233935,88.08668953447544
1.86,0.5581449493461027,0.2603356216472044,87.41374787760152
1.87,1.6956378398275673,0.2423849779166052,86.77285106153113
1.88,2.3290709538721743,0.006154506421919726,86.17773258946576
1.89,1.120801173540984,-0.30361091958059183,85.6627262194092
1.9,0.23503741962136288,-0.18838488268131695,85.21409844815992
1.91,0.15208008767993494,-0.0928532663321852,84.7998044349144
1.92,0.18400988855406764,-0.02279446822933232,84.44044443447493
1.93,0.14395979295213354,-0.05811449675068275,84.17035220484527
1.94,0.15498735369359223,-0.01931831182435914,83.95748290522188
1.95,0.15438585038042177,-0.0262706246343055,83.71027984759473
1.96,0.18165400057748327,0.007886886007348982,83.4195873631628
1.97,0.16486203308480754,-0.022213209289484344,83.13805054753188
1.98,0.21939833347893054,0.03047620402261731,82.95951500591227
1.99,0.22345848084283124,0.02062899374754575,82.83591347709869
2.0,0.25303239374037956,0.054205245449352256,82.65508901827883
2.01,0.27333313055988306,0.054205245449352256,82.44221971865545
2.02,0.27097724258329875,0.06173881719914659,82.19501666102829
2.03,0.3075686941345026,0.06810987106924497,81.9592581894024
2.04,0.34872154581058257,0.10805717664114986,81.69145487697298
2.05,0.42125282032372224,0.14743462050732145,81.42136264734332
2.06,0.45779414659882856,0.1763835951585735,81.23138251972244
2.07,0.5042101522651502,0.18159213114897593,81.18560417571742
2.08,0.5395484719139155,0.20475131086997755,81.71205513177524
2.09,0.5911775062943813,0.21112236474007595,83.81099220440579
2.1,0.6167413971041265,0.2215394367208808,89.11899119178882
2.11,0.5772928048153628,0.15437553608315313,97.71387527873289
2.12,0.5053630336153936,0.10284864065074742,107.13734739216795
2.13,0.43634052842908166,0.05478650438920023,114.72281899380114
2.14,0.34872154581058257,0.01483919881729534,119.66001339474344
2.15,0.28145342528768447,-0.03611783490937706,122.47538155105269
2.16,0.25303239374037956,-0.040163853020083545,123.86704320880555
2.17,0.2425562110359938,-0.059846876336112007,124.05702333642641
2.18,0.20431062537357114,-0.07837877900655918,123.15976779392786
2.19,0.2506765057637952,-0.04942980435530713,121.01734129449254
2.2,0.20370912206040068,-0.074902622601586,117.13533772286614
2.21,0.2170424455023462,-0.08474983287665756,112.22103249392634
2.22,0.2443105956994077,-0.053487219700128284,107.28383809298406
2.23,0.24721786171306498,-0.06969408661118356,102.76322662248751
2.24,0.2425562110359938,-0.061009394215807956,99.24973872010159
2.25,0.2535837717774525,-0.07317024301615674,96.78228597823056
2.26,0.2483707430633084,-0.06332303274108518,95.36773514847519
2.27,0.2524308904272091,-0.08011115859198843,94.78406126241107
2.28,0.2547366531276959,-0.05463834034570957,94.6604597335975
2.29,0.2657642138691546,-0.061009394215807956,94.76117209040856
2.3,0.2559396597540369,-0.05290596076028031,94.84128419241736
2.31,0.2559396597540369,-0.06853156873148762,94.5711919627877
2.32,0.25303239374037956,-0.056382117165253494,93.85247196190875
2.33,0.23794468563502016,-0.07664639942112993,92.82017030459536
2.34,0.2501251277267223,-0.05001106329515511,91.63222227766488
2.35,0.2495236244135518,-0.06796170702575431,90.51065284954169
2.36,0.2512780090769657,-0.04769742476987788,89.62255297584413
2.37,0.24491209901257815,-0.07258898407630877,89.18536979059611
2.38,0.22461136219307465,-0.06853156873148762,89.09610201978631
2.39,0.233283034957949,-0.08879585098736405,89.29752673340843
2.4,0.22576424354331806,-0.07664639942112993,89.74615450465771
2.41,0.26691709521939805,-0.054057081405861594,90.37560673472684
2.42,0.23388453827111946,-0.06796170702575431,91.12637157640931
2.43,0.2623055698184244,-0.06274177380123722,92.10373922091667
2.44,0.28957372001548587,-0.05232470182043234,93.28024266184589
2.45,0.34581427979692525,-0.03668769661511037,94.36976724916556
2.46,0.36786940127984263,-0.03379279914998516,95.065598078042
2.47,0.42471146437445245,-0.024538245048876244,95.3013565496679
2.48,0.3939846701266607,0.0003647114916693171,95.13197667684929
2.49,0.36320775060277144,0.006154506421919726,94.63985947879523
2.5,0.3040599248076748,-0.007157463024010349,93.97607349072233
2.51,0.2414033296857504,-0.06911282767133559,93.16808571903357
2.52,0.2251627402301476,-0.06969408661118356,92.18156240572522
2.53,0.20601488476088747,-0.09401578421188116,91.11492699040805
2.54,0.19328306463211245,-0.09227200739233724,90.07118074709341
2.55,0.1967417086828427,-0.09806180232258764,89.09610201978631
2.56,0.19619033064576974,-0.08764473034178277,88.25378049009379
2.57,0.19964897469649998,-0.10907153047735516,87.5373494064151
2.58,0.15789461970724952,-0.08590095352223885,86.94223093434972
2.59,0.21473668280185937,0.0067357653617677,86.35855704828562
2.6,0.7124305491743294,0.2585918448276605,85.82066150622654
2.61,1.8365901162138485,0.22270195460057676,85.30336621896971
2.62,2.3963390743950725,-0.02279446822933232,84.82040468971667
2.63,1.139949029010244,-0.3470343815574699,84.44044443447493
2.64,0.3313280750047363,-0.16349332337488606,84.11312927483898
2.65,0.2704258645462258,-0.08185493541153235,83.86821513441208
2.66,0.24491209901257815,-0.06159065315565593,83.73316901959724
2.67,0.2663657171823251,-0.02685188357415347,83.57523373277989
2.68,0.22751862820673194,-0.027433142514001446,83.36236443315651
2.69,0.22576424354331806,-0.04595364795033396,83.12660596153061
2.7,0.2587968004915966,0.0020970910770985733,82.86795831790221
2.71,0.27508751522329694,0.00442212683649047,82.64364443227757
2.72,0.2843606913013418,0.027581306557492108,82.47655347665922
2.73,0.31333310088571964,0.024686409092366902,82.27512876303709
2.74,0.3081200721715755,0.03510348107317177,82.05997054621346
2.75,0.335388222368637,0.04205579388311813,81.85854583259133
2.76,0.349323049123753,0.0733184070596474,81.61134277496419
2.77,0.37017516398032946,0.06405245572442382,81.35498404853602
2.78,0.4386462911295685,0.13469251276712468,81.05055806090259
2.79,0.4502252299081001,0.12484530249205311,80.75986557647066
2.8,0.5383955905636721,0.19606661847460194,80.64770863365834
2.81,0.5795985675158496,0.20127515446500438,80.86057793328172
2.82,0.6451624286514314,0.253964567777106,82.09430430421723
2.83,0.656741367429963,0.21806328031590763,86.07702023265469
2.84,0.684611020940195,0.23253776764153367,93.84102737590749
2.85,0.6729819568855658,0.18042961326927998,103.69252700578959
2.86,0.5575434460329323,0.10689465876145392,112.48883580635577
2.87,0.4792477647685755,0.05074048627849374,118.57048880742377
2.88,0.4188969323471379,0.035684740013019745,122.18468906662076
2.89,0.34641578311009574,-0.02279446822933232,124.22640320924502
2.9,0.328420808991079,-0.014109775833956706,125.01150180893126
2.91,0.29363386737938657,-0.05463834034570957,124.60865238168701
2.92,0.287819335352072,-0.043058750485208755,123.14832320792661
2.93,0.2837591879881713,-0.0592770146303787,120.18646435080127
2.94,0.2866664540018286,-0.043640009425056726,115.73223147911202
2.95,0.2657642138691546,-0.08416857393680958,110.70576930735992
2.96,0.28320780995109834,-0.05290596076028031,105.96084395123873
2.97,0.3150874855491335,-0.04190762983962747,101.98728369160227
2.98,0.2843606913013418,-0.05290596076028031,99.04831400647946
2.99,0.3006012807569446,-0.058695755690530725,97.14164597867003
3.0,0.2907266013657293,-0.04769742476987788,96.19861209216646
3.01,0.3081200721715755,-0.057533237810834775,95.8621412637295
3.02,0.3063656875081616,-0.027433142514001446,95.92851986253679
3.03,0.3116288414984033,-0.04537238901048598,96.1207889073579
3.04,0.29478674872963,-0.03322293744425186,96.1207889073579
3.05,0.28320780995109834,-0.06796170702575431,95.80491833372321
3.06,0.2785461592740272,-0.04653490689018193,95.18919960685558
3.07,0.3063656875081616,-0.044802527304752676,94.30109973315803
3.08,0.28897221670231543,-0.03379279914998516,93.16808571903357
3.09,0.29363386737938657,-0.044802527304752676,91.96869310610184
3.1,0.2959396300798734,-0.028003004219734756,90.91350227678593
3.11,0.2727316272467126,-0.06911282767133559,90.1284036770997
3.12,0.2860649506886581,-0.029165522099430703,89.66833131984916
3.13,0.28726795731499905,-0.04942980435530713,89.52184061903307
3.14,0.2617040665052539,-0.055800858225405515,89.65688673384791
3.15,0.2686714798828119,-0.07375150195600472,90.07118074709341
3.16,0.2698243612330553,-0.05059232223500308,90.61136520635274
3.17,0.2524308904272091,-0.08011115859198843,91.24997310522289
3.18,0.2715787458964692,-0.04653490689018193,91.99158227810435
3.19,0.2704258645462258,-0.0650668095606291,92.7995700497931
3.2,0.3197491362262047,-0.01237739624852745,93.58466864947934
3.21,0.35393457452472665,-0.029165522099430703,94.16834253554345
3.22,0.3574433438515544,-0.01874845011862583,94.44759043397411
3.23,0.4177440509968945,-0.03322293744425186,94.35832266316432
3.24,0.42822023370128026,0.003259608956794522,93.89825030591378
3.25,0.41543828829640767,0.023523891212670955,93.13604087823006
3.26,0.3272679276408356,0.007317024301615674,92.3051639345388
3.27,0.2796990406242706,-0.039582594080235574,91.4193529780415
3.28,0.2518795123901362,-0.040745111959931524,90.49920826354042
3.29,0.24606498036282157,-0.07085660449087952,89.5676189630381
3.3,0.21939833347893054,-0.06969408661118356,88.72529743334559
3.31,0.21588956415210278,-0.08590095352223885,87.96308800566186
3.32,0.2089221507745448,-0.0650668095606291,87.27870176278668
3.33,0.2559396597540369,-0.055219599285557544,86.63780494671629
3.34,0.2141351794886889,-0.0569519788709868,86.03353080584992
3.35,0.13759388288774602,-0.029165522099430703,85.46130150578706
3.36,0.44446082315688307,0.23832756257178406,84.94400621853025
3.37,1.4839086735915603,0.2794373860233849,84.4610446892772
3.38,2.3691210494741086,0.14279594622265232,83.99181666322566
3.39,1.7310262847524303,-0.24107429599341862,83.57523373277989
3.4,0.5151875877305113,-0.24860786774321295,83.28454124834796
3.41,0.30521280615791824,-0.09112088674675595,83.11516137552937
3.42,0.273884508596956,-0.03495531702968111,82.95951500591227
3.43,0.2965411333930439,-0.01585355265350063,82.6894227762826
3.44,0.28726795731499905,0.01252556029201811,82.38728570584941
3.45,0.2628569478554973,-0.024538245048876244,82.15152723422352
3.46,0.27508751522329694,0.011363042412322161,81.97070277540365
3.47,0.3046614281208453,0.013676680937599392,81.8699904185926
3.48,0.2965411333930439,0.03047620402261731,81.7807226477828
3.49,0.3412027543959516,0.039730758123726236,81.6342319469667
3.5,0.33363383770522315,0.048415450519101844,81.38702888933955
3.51,0.356290462501311,0.04899670945894982,81.10778099090888
3.52,0.36205486925252806,0.06694735318954902,80.83768876127921
3.53,0.4148367849832372,0.09416394825537182,80.62481946165583
3.54,0.4508267332212706,0.1312163563621515,80.43483933403496
3.55,0.4705259667276036,0.12426404355220513,80.19908086240906
3.56,0.5157890910436818,0.17232617981375234,80.00681181758794
3.57,0.6172927751411994,0.22328321354042474,79.89465487477563
3.58,0.608621102376325,0.2192257981956036,80.098368505598
3.59,0.6648616621577644,0.2186445392557556,81.2199379337212
3.6,0.6932826937050693,0.23949008045148001,84.8890722057242
3.61,0.683408014313854,0.18042961326927998,92.25938559053377
3.62,0.6445609253382609,0.16364148741837672,102.02161744960605
3.63,0.56105221535976,0.09647758678064904,111.14295249260793
3.64,0.4769420020680887,0.06347119678457584,117.60685466611793
3.65,0.4015034615412917,-0.005425083438581092,121.42019072173679
3.66,0.3441100204096089,-0.01816719117877786,123.4733494503623
3.67,0.3394483697325377,-0.03668769661511037,124.18062486523999
3.68,0.27914766258719764,-0.07027534555103154,123.68850766718595
3.69,0.29709251143011683,-0.06159065315565593,122.12746613661447
3.7,0.29709251143011683,-0.043058750485208755,118.81769186505093
3.71,0.33423534101839364,-0.03668769661511037,113.81411886530134
3.72,0.3069671908213321,-0.03843147343465429,108.30469516429618
3.73,0.33829548838229434,-0.040163853020083545,103.24389923454031
3.74,0.3063656875081616,-0.04653490689018193,99.05975859248072
3.75,0.33423534101839364,-0.05059232223500308,95.91707527653553
3.76,0.31393460419889013,-0.04653490689018193,93.88680571991252
3.77,0.3359897256818075,-0.04826728647561119,92.78812546379184
3.78,0.32666642432766513,-0.03611783490937706,92.33949769254257
3.79,0.3243606616271783,-0.0621719120955039,92.25938559053377
3.8,0.3400498730457082,-0.023375727169180294,92.27083017653503
3.81,0.3185461295998637,-0.057533237810834775,92.14722864772145
3.82,0.3278694309540061,-0.028584263159582728,91.7672683924797
3.83,0.3069671908213321,-0.06390429168093316,91.04854839160076
3.84,0.2988468960935307,-0.04711616583002991,90.11695909109844
3.85,0.3371426070320509,-0.029746781039278677,89.06176826178253
3.86,0.2913281046788998,-0.055219599285557544,88.10957870647795
3.87,0.32551354297742174,-0.041326370899779495,87.390858705599
3.88,0.29709251143011683,-0.05116218394073639,87.05438787716204
3.89,0.3075686941345026,-0.0621719120955039,87.1322110619706
3.9,0.2959396300798734,-0.054057081405861594,87.49157106241007
3.91,0.31739324824962034,-0.054057081405861594,88.01802201846789
3.92,0.301754162107188,-0.04826728647561119,88.67036342053954
3.93,0.35684184053838397,-0.02510810675460955,89.4783511922283
3.94,0.38065134668471523,-0.030328039979126652,90.4534299195354
3.95,0.4224057016739657,-0.0262706246343055,91.59788851966111
3.96,0.4612527906495588,-0.00658760131827704,92.73090253378555
3.97,0.5042101522651502,-0.015272293713652654,93.60755782148185
3.98,0.48215503078223276,0.025837529737948183,93.99896266272484
3.99,0.4270172270749393,0.009630662826892905,93.89825030591378
4.0,0.3644107572291124,-0.010633619428983526,93.37179934985595
4.01,0.33478671905546653,-0.03843147343465429,92.60730100497199
4.02,0.273884508596956,-0.07721626112686324,91.78786864728197
4.03,0.2884208386652425,-0.07317024301615674,90.8585682639799
4.04,0.2843606913013418,-0.058695755690530725,89.79193284866274
4.05,0.2884208386652425,-0.074902622601586,88.75963119134936
4.06,0.2506765057637952,-0.09170214568660393,87.82804189084703
4.07,0.2704258645462258,-0.09459704315172912,87.02005411915827
4.08,0.21358380145161596,-0.08358731499696162,86.32422329028185
4.09,0.34290701378326793,0.06694735318954902,85.6627262194092
4.1,0.9462148368932538,0.284657319247902,84.97833997653402
4.11,2.077341817310331,0.22964287017640844,84.45188902047619
4.12,2.407366635136531,-0.13048693337881287,84.04675067603169
4.13,1.0436583736268708,-0.3337224121115398,83.71027984759473
4.14,0.3690222826300861,-0.149600094989108,83.32803067515275
4.15,0.38004984337154474,-0.05116218394073639,82.99155984671579
4.16,0.34696716114716863,-0.04190762983962747,82.75580137508989
4.17,0.35568895918814053,-0.02510810675460955,82.55437666146777
4.18,0.34290701378326793,-0.007738721963858323,82.35295194784564
4.19,0.36786940127984263,-0.00021654744817865704,82.14008264822226
4.2,0.34872154581058257,-0.00021654744817865704,81.88143500459385
4.21,0.39223028546324684,0.02294263227282298,81.64567653296795
4.22,0.3893230194495896,0.03220858360804657,81.4785855773496
4.23,0.40325784620470556,0.02294263227282298,81.38702888933955
4.24,0.4490723485578567,0.07215588917995146,81.29776111852973
4.25,0.4653129380134595,0.0733184070596474,81.08489181890636
4.26,0.4664658193637029,0.07389966599949538,80.79419933447443
4.27,0.5297239177987978,0.11153333304612303,80.48977334684099
4.28,0.5488717732680579,0.13527377170697266,80.21052544841032
4.29,0.5987464229851097,0.15379427714330515,79.95187780478192
4.3,0.6439594220250904,0.19317172100947674,79.80538710396581
4.31,0.7118290458611589,0.21633090073047836,79.88321028877436
4.32,0.7223052285655447,0.2186445392557556,80.82624417527795
4.33,0.7918791117889296,0.24065259833117597,84.03530609003043
4.34,0.7947863778025869,0.22732923165113122,90.91350227678593
4.35,0.7796986696972275,0.18738192607922632,100.50635426303961
4.36,0.6660145435080078,0.10516227917602465,109.74213516605407
4.37,0.6202000411548566,0.07215588917995146,116.47384065199348
4.38,0.5082702996290509,0.011944301352170136,120.59160269524577
4.39,0.5076687963158804,0.013106819231866084,122.80040779348839
4.4,0.43283175910225385,-0.028003004219734756,123.63128473717966
4.41,0.4386462911295685,-0.039012732374502264,123.32914766674647
4.42,0.42125282032372224,-0.040745111959931524,122.01530919380215
4.43,0.4177440509968945,-0.057533237810834775,119.26631963630021
4.44,0.4490723485578567,-0.024538245048876244,114.92424370742327
4.45,0.4148367849832372,-0.06274177380123722,109.98704930648097
4.46,0.44155355714322575,-0.03379279914998516,105.20779019235601
4.47,0.41253102228275035,-0.0650668095606291,101.13580649310875
4.48,0.42125282032372224,-0.05232470182043234,97.94963375035879
4.49,0.44040067579298237,-0.04942980435530713,95.77287349291969
4.5,0.43689190646615456,-0.04595364795033396,94.5711919627877
4.51,0.44561370450712645,-0.05116218394073639,94.0104072487261
4.52,0.4467665858573699,-0.03206041956455591,93.89825030591378
4.53,0.4479194672076133,-0.03611783490937706,93.9531843187198
4.54,0.4270172270749393,-0.04537238901048598,93.93258406391755
4.55,0.42416008633737956,-0.05811449675068275,93.61671349028285
4.56,0.42125282032372224,-0.0442212683649047,93.06737336222251
4.57,0.4345861437656678,-0.03611783490937706,92.27083017653503
4.58,0.41603979160957816,-0.05059232223500308,91.29575144922792
4.59,0.4264658490378664,-0.05232470182043234,90.27489437791579
4.6,0.42531296768762294,-0.044802527304752676,89.32041590541095
4.61,0.4224057016739657,-0.04942980435530713,88.55820647772723
4.62,0.4264658490378664,-0.043640009425056726,88.08668953447544
4.63,0.43167887775201047,-0.043058750485208755,87.89442048965432
4.64,0.4229570797110386,-0.039012732374502264,87.9516434196606
4.65,0.4218041983607952,-0.056382117165253494,88.27666966209631
4.66,0.41313252559592084,-0.05174344288058436,88.82600979015665
4.67,0.418345554310065,-0.06332303274108518,89.51039603303181
4.68,0.41543828829640767,-0.04711616583002991,90.26344979191452
4.69,0.44446082315688307,-0.03264167850440388,91.11492699040805
4.7,0.48621517814613346,-0.023375727169180294,91.99158227810435
4.71,0.521002119757826,-0.01237739624852745,92.653079348977
4.72,0.5349369465129419,-0.02395698610902827,92.98955017741396
4.73,0.5842602181929208,-0.01700467329908191,92.92317157860667
4.74,0.5778441828524358,0.0217915116272417,92.46309922135615
4.75,0.5442101225909868,0.04031201706357421,91.82220240528575
4.76,0.4815535274690623,-0.0031114449133038615,91.05999297760202
4.77,0.40385934951787605,-0.056382117165253494,90.24056061991202
4.78,0.38235560607203156,-0.06969408661118356,89.43257284822327
4.79,0.3876187600622732,-0.06390429168093316,88.57880673252949
4.8,0.37017516398032946,-0.07142646619661282,87.71588494803471
4.81,0.36320775060277144,-0.07837877900655918,86.95367552035098
4.82,0.36611501661642876,-0.06738044808590633,86.2692892774758
4.83,0.36611501661642876,-0.0720077251364608,85.57345844859938
4.84,0.3104258348720623,-0.07142646619661282,84.9554508045315
4.85,0.38295710938520205,0.04089327600342218,84.44044443447493
4.86,0.9264654781108232,0.2858084398934833,84.03530609003043
4.87,2.0361388403581535,0.25338330883725807,83.64390124878744
4.88,2.562855241591099,-0.03611783490937706,83.28454124834796
4.89,1.2547860365497072,-0.3128768709158154,82.95951500591227
4.9,0.45664126524858517,-0.1704456361848324,82.63219984627632
4.91,0.42065131701055175,-0.05232470182043234,82.30717360384061
4.92,0.40501223086811944,-0.03668769661511037,82.01648111940868
4.93,0.40035058019104824,-0.019899570764207116,81.75783347578027
4.94,0.4021049648544621,0.0026783500169465474,81.5449641761569
4.95,0.397443314177391,-0.007738721963858323,81.35498404853602
4.96,0.39689193614031804,-0.0019489270336079134,81.17415958971617
4.97,0.41313252559592084,0.007317024301615674,80.94984570409153
4.98,0.42877161173835315,0.03162732466819859,80.70264264646437
4.99,0.45373399923492785,0.05131034798422705,80.47832876083973
5.0,0.4612527906495588,0.05710014291447746,80.27690404721761
5.01,0.4548868805851713,0.04957796839879779,80.07547933359548
5.02,0.5076687963158804,0.09705884572049701,79.89465487477563
5.03,0.5169419723939253,0.09531506890095309,79.68178557515225
5.04,0.5848115962299938,0.15668917460843038,79.48036086153012
5.05,0.6120797464270552,0.16595512594365394,79.278936147908
5.06,0.6555884860797195,0.1920092031297808,79.0660668482846
5.07,0.7437588467352916,0.24759351390700765,78.99739933227707
5.08,0.766365346255282,0.24644239326142636,79.48036086153012
5.09,0.7982951471294146,0.2487560317867036,81.64567653296795
5.1,0.8029066725303883,0.2279104905909792,86.95367552035098
5.11,0.8023552944933153,0.20822746727495073,95.47989209128751
5.12,0.7095232831606721,0.13990104875752712,104.93769796272635
5.13,0.63704213392363,0.0982099663660783,112.63532650717185
5.14,0.5389970938768426,0.036835860658601026,117.77394562173629
5.15,0.4827064088193057,0.006154506421919726,120.82736116687167
5.16,0.42937311505152365,-0.021062088643903062,122.25106766542805
5.17,0.39919769884080486,-0.05174344288058436,122.34033543623785
5.18,0.41949843566030837,-0.021643347583751037,121.3538121229295
5.19,0.3777440806710579,-0.06159065315565593,119.14271810748663
5.2,0.40095208350421874,-0.03726895555495834,115.13711300704665
5.21,0.41659116964665105,-0.030328039979126652,110.21136319210561
5.22,0.41949843566030837,-0.017585932238929885,105.34283630717086
5.23,0.37598969600764404,-0.059846876336112007,101.13580649310875
5.24,0.40441072755494895,-0.03668769661511037,97.8260322215452
5.25,0.39283178877641733,-0.04884854541545916,95.34484597647267
5.26,0.39513755147690416,-0.04769742476987788,93.75175960509769
5.27,0.42065131701055175,-0.028003004219734756,92.77668087779058
5.28,0.41603979160957816,-0.02395698610902827,92.22734074973025
5.29,0.41949843566030837,-0.01816719117877786,91.95724852010058
5.3,0.4148367849832372,-0.020480829704055088,91.86798074929078
5.31,0.3858643753988593,-0.041326370899779495,91.63222227766488
5.32,0.39107740411300346,-0.039012732374502264,90.70063297716256
5.33,0.42125282032372224,-0.00658760131827704,89.53328520503433
5.34,0.3812027247217882,-0.040745111959931524,88.63602966253578
5.35,0.39453604816373367,-0.02510810675460955,87.9516434196606
5.36,0.38295710938520205,-0.03611783490937706,87.35652494759523
5.37,0.38004984337154474,-0.03206041956455591,86.78429564753237
5.38,0.38817013809934614,-0.025689365694457525,86.37000163428688
5.39,0.35162881182423983,-0.05232470182043234,86.17773258946576
5.4,0.35102730851106934,-0.06448555062078114,86.2692892774758
5.41,0.37889696202130135,-0.03322293744425186,86.63780494671629
5.42,0.42531296768762294,-0.005425083438581092,87.33363577559273
5.43,0.4594984059861449,-0.005425083438581092,88.23318023529153
5.44,0.445012201193956,-0.02510810675460955,89.26319297540466
5.45,0.5331825618495281,0.0067357653617677,90.29549463271805
5.46,0.5343354431997714,0.011944301352170136,91.26141769122415
5.47,0.5448116259041572,0.06463371466427179,91.99158227810435
5.48,0.4531324959217574,0.022361373332975006,92.35094227854383
5.49,0.39223028546324684,-0.016423414359233935,92.35094227854383
5.5,0.35859622520179785,-0.05059232223500308,92.02362711890787
5.51,0.35162881182423983,-0.040163853020083545,91.38501922003772
5.52,0.3272679276408356,-0.06159065315565593,90.53125310434395
5.53,0.33829548838229434,-0.04826728647561119,89.54472979103559
5.54,0.30927295352181894,-0.07317024301615674,88.56965106372849
5.55,0.2999997774437741,-0.07432136366173803,87.64950634922742
5.56,0.3058143094710887,-0.06621793020621039,86.77285106153113
5.57,0.21473668280185937,-0.0262706246343055,85.95341870384112
5.58,0.5558391866456159,0.24354749579630117,85.24843220616368
5.59,1.5622043548559172,0.2794373860233849,84.59609080409203
5.6,2.5141334732242906,0.16190910783294746,84.04675067603169
5.61,1.8679184137748108,-0.26018745760371376,83.55234456077739
5.62,0.5940847723080386,-0.28507901691014464,83.09227220352685
5.63,0.39979920215397535,-0.05290596076028031,82.65508901827883
5.64,0.36380925391594193,-0.03264167850440388,82.29572901783936
5.65,0.34872154581058257,-0.028584263159582728,82.00503653340743
5.66,0.3452629017598523,-0.01816719117877786,81.79216723378404
5.67,0.35162881182423983,0.0026783500169465474,81.62278736096545
5.68,0.3818042280349586,0.020047734807697774,81.37558430333829
5.69,0.37829545870813086,0.024105150152518927,81.08489181890636
5.7,0.40265634289153507,0.035684740013019745,80.86057793328172
5.71,0.4258643457246959,0.06115755825929861,80.67059780566085
5.72,0.40035058019104824,0.03104606572835062,80.52410710484476
5.73,0.4461650825441994,0.082584358394871,80.32268239122264
5.74,0.458947027949072,0.08084058157532707,80.05259016159297
5.75,0.4873680594963769,0.1132657126315523,79.80538710396581
5.76,0.5111274403666106,0.12426404355220513,79.49180544753138
5.77,0.5755384201519489,0.1763835951585735,79.15533461909442
5.78,0.6190471598046132,0.1914279441899328,78.90813156146726
5.79,0.6671674248582512,0.23486280340092555,78.76164086065117
5.8,0.7455132313987055,0.269601572982428,78.86235321746224
5.81,0.7396986993713909,0.2620680012326337,79.8626100339721
5.82,0.7814530543606414,0.253964567777106,83.1609397195344
5.83,0.7640595835547951,0.21401726220520115,89.92697896347758
5.84,0.7135834305245728,0.15668917460843038,99.0368694204782
5.85,0.6190471598046132,0.1034298995905954,107.82173363504313
5.86,0.5343354431997714,0.04205579388311813,114.3291252353579
5.87,0.4722803513910175,0.0217915116272417,118.3805086798029
5.88,0.44155355714322575,-0.003692703853151836,120.557268937242
5.89,0.39283178877641733,-0.030328039979126652,121.31947836492573
5.9,0.40035058019104824,-0.02395698610902827,120.89373976567896
5.91,0.3672678979666722,-0.03437405808983314,119.38992116511378
5.92,0.3713781706066704,-0.041326370899779495,116.36168370918116
5.93,0.36320775060277144,-0.039012732374502264,112.01960778030423
5.94,0.3684709045930131,-0.04595364795033396,107.2952826789853
5.95,0.37889696202130135,-0.030328039979126652,102.77238229128851
5.96,0.41077663761933647,-0.01585355265350063,98.85833387885859
5.97,0.38295710938520205,-0.03495531702968111,95.79347374772195
5.98,0.40325784620470556,-0.02685188357415347,93.67393642028914
5.99,0.36090198790228467,-0.053487219700128284,92.38298711934735
6.0,0.38471149404861593,-0.04942980435530713,91.68715629047091
6.01,0.38235560607203156,-0.03322293744425186,91.33924087603269
6.02,0.40671649025543577,-0.020480829704055088,91.22708393322037
6.03,0.39107740411300346,-0.022213209289484344,91.1034824044068
6.04,0.3736839333071572,-0.041326370899779495,90.80134533397361
6.05,0.37829545870813086,-0.021062088643903062,90.18333768990573
6.06,0.34696716114716863,-0.05463834034570957,89.32041590541095
6.07,0.356290462501311,-0.029165522099430703,88.28811424809756
6.08,0.37192954864374334,-0.024538245048876244,87.33363577559273
6.09,0.3272679276408356,-0.04537238901048598,86.55998176190775
6.1,0.33478671905546653,-0.055800858225405515,86.0106416338474
6.11,0.3481701677735096,-0.03611783490937706,85.76343857622025
6.12,0.33769398506912385,-0.0569519788709868,85.43841233378456
6.13,0.3412027543959516,-0.04711616583002991,85.38118940377827
6.14,0.32611504629059224,-0.07432136366173803,85.9213738630376
6.15,0.34641578311009574,-0.04247749154536078,86.8964525903447
6.16,0.3615034912154551,-0.04826728647561119,88.05235577647167
6.17,0.3371426070320509,-0.05463834034570957,89.13043577779008
6.18,0.3475686644603391,-0.06042813527595998,90.02769132028864
6.19,0.4224057016739657,-0.007157463024010349,90.65485463315753
6.2,0.4583455246359015,-0.014109775833956706,91.01421463359699
6.21,0.4600999092993154,-0.016423414359233935,91.11492699040805
6.22,0.5308767991490412,0.0020970910770985733,90.97072520679222
6.23,0.5001500049012495,0.003259608956794522,90.51065284954169
6.24,0.4751876174046748,0.020047734807697774,89.803377434664
6.25,0.4177440509968945,0.013106819231866084,88.97250049097273
6.26,0.36786940127984263,-0.03379279914998516,88.10957870647795
6.27,0.3127817228486467,-0.06911282767133559,87.20087857797814
6.28,0.32611504629059224,-0.06853156873148762,86.2692892774758
6.29,0.3168418702125474,-0.0592770146303787,85.4269677477833
6.3,0.314485982235963,-0.07664639942112993,84.71969233290561
6.31,0.2965411333930439,-0.08300605605711364,84.0696398480342
6.32,0.3191476329130342,-0.07721626112686324,83.44018761796507
6.33,0.2860649506886581,-0.08185493541153235,82.86795831790221
6.34,0.2593983038047671,-0.021643347583751037,82.37584111984816
6.35,0.6909769310045825,0.2765424885582597,81.97070277540365
6.36,1.7867154664967968,0.2667066755173028,81.64567653296795
6.37,2.563406619628172,0.06810987106924497,81.309205704531
6.38,1.5842594763388345,-0.3198177864916471,80.97273487609404
6.39,0.52621514847197,-0.2196588930919609,80.6591532196596
6.4,0.3893230194495896,-0.08011115859198843,80.38906099002993
6.41,0.38817013809934614,-0.03611783490937706,80.17619169040655
6.42,0.36786940127984263,-0.041326370899779495,79.97476697678442
6.43,0.3684709045930131,-0.006006342378429066,79.76189767716104
6.44,0.3690222826300861,-0.021062088643903062,79.53529487433615
6.45,0.36611501661642876,0.00442212683649047,79.37964850471906
6.46,0.3818042280349586,0.0026783500169465474,79.29038073390925
6.47,0.41137814093250696,0.04205579388311813,79.1988240458992
6.48,0.41949843566030837,0.03626599895286772,79.02028850427958
6.49,0.451979614571514,0.06984225065467423,78.83030837665872
6.5,0.4473179638944428,0.04899670945894982,78.64948391783885
6.51,0.4833079121324762,0.08489799692014822,78.41372544621296
6.52,0.519247735094412,0.1034298995905954,78.10014378977851
6.53,0.5407514785402565,0.13237887424184744,77.76367296134156
6.54,0.5802000708290201,0.14743462050732145,77.51646990371441
6.55,0.6526812200660623,0.20937858792053202,77.38142378889957
6.56,0.6764907262123936,0.20995984686038,77.46153589090837
6.57,0.7333327893070034,0.25280204989741006,78.08869920377725
6.58,0.765813968218209,0.23890882151163204,80.45543958883722
6.59,0.7936334964523435,0.2499071524322849,86.06557564665344
6.6,0.7710269969323531,0.19432284165505803,94.78406126241107
6.61,0.7187964592387169,0.1555380539628491,104.07477617823157
6.62,0.6323804832465588,0.0883741533251214,111.49086790704615
6.63,0.5349369465129419,0.03337110148774251,116.36168370918116
6.64,0.46766882599004383,-0.01816719117877786,119.15416269348789
6.65,0.4479194672076133,-0.008319980903706297,120.33295505161736
6.66,0.41543828829640767,-0.03322293744425186,120.31006587961485
6.67,0.3933831668134903,-0.03726895555495834,119.33498715230775
6.68,0.38877164141251663,-0.058695755690530725,117.16967148086991
6.69,0.39167890742617395,-0.0442212683649047,113.42042510685809
6.7,0.4218041983607952,-0.03206041956455591,108.86547987835777
6.71,0.40325784620470556,-0.030328039979126652,104.33342382185998
6.72,0.3696237859432565,-0.07664639942112993,100.25915120541246
6.73,0.3939846701266607,-0.053487219700128284,96.99515527785394
6.74,0.3893230194495896,-0.06853156873148762,94.48192419197788
6.75,0.43107737443884,-0.016423414359233935,92.87739323460164
6.76,0.38877164141251663,-0.06796170702575431,91.95724852010058
6.77,0.40441072755494895,-0.04247749154536078,91.49717616285004
6.78,0.41603979160957816,-0.0442212683649047,91.30719603522918
6.79,0.42125282032372224,-0.01874845011862583,91.22708393322037
6.8,0.40731799356860626,-0.04190762983962747,91.05999297760202
6.81,0.40095208350421874,-0.029165522099430703,90.65485463315753
6.82,0.3818042280349586,-0.057533237810834775,90.00480214828612
6.83,0.3876187600622732,-0.03264167850440388,89.13043577779008
6.84,0.3939846701266607,-0.04537238901048598,88.15306813328273
6.85,0.38410999073544544,-0.03611783490937706,87.21003424677914
6.86,0.40441072755494895,-0.03379279914998516,86.45926940509668
6.87,0.39283178877641733,-0.02279446822933232,85.93281844903886
6.88,0.3655636385793558,-0.0592770146303787,85.70850456341422
6.89,0.39167890742617395,-0.02510810675460955,85.76343857622025
6.9,0.36265637256569855,-0.06332303274108518,85.99919704784615
6.91,0.38065134668471523,-0.039582594080235574,86.43638023309417
6.92,0.3754383179705711,-0.053487219700128284,87.02005411915827
6.93,0.38410999073544544,-0.040163853020083545,87.76166329203974
6.94,0.35393457452472665,-0.07027534555103154,88.63602966253578
6.95,0.38817013809934614,-0.03668769661511037,89.52184061903307
6.96,0.4502252299081001,-0.01585355265350063,90.18333768990573
6.97,0.4479194672076133,-0.022213209289484344,90.622809792354
6.98,0.4751876174046748,-0.03611783490937706,90.7784561619711
6.99,0.5523304173187882,0.013676680937599392,90.61136520635274
7.0,0.5326311838124551,0.013676680937599392,90.17418202110473
7.01,0.5047615303022231,0.053054124803770975,89.53328520503433
7.02,0.4508267332212706,0.003259608956794522,88.7710757773506
7.03,0.40385934951787605,-0.013528516894108732,87.94019883365935
7.04,0.3522303151374103,-0.074902622601586,87.0429432911608
7.05,0.34696716114716863,-0.055219599285557544,86.16857692066475
7.06,0.36380925391594193,-0.04769742476987788,85.37203373497726
7.07,0.34872154581058257,-0.061009394215807956,84.65331373409832
7.08,0.3441100204096089,-0.08127367647168439,84.01241691802792
7.09,0.36205486925252806,-0.040745111959931524,83.4195873631628
7.1,0.27914766258719764,-0.08474983287665756,82.86795831790221
7.11,0.3127817228486467,0.04436943240839536,82.31861818984187
7.12,0.8238089126630622,0.2782862653778036,81.81505640578656
7.13,1.989171456654759,0.2939118733490109,81.39847347534081
7.14,2.5866146224613327,-0.010052360489135553,81.0734472329051
7.15,1.3545854612599084,-0.292031329720091,80.72553181846689
7.16,0.44852097052078377,-0.2115440624023186,80.46688417483848
7.17,0.40847087491884965,-0.040745111959931524,80.27690404721761
7.18,0.40731799356860626,-0.03379279914998516,80.06403474759423
7.19,0.3818042280349586,-0.024538245048876244,79.79394251796457
7.2,0.40441072755494895,0.005573247482071752,79.50325003353264
7.21,0.38992452276276,0.013676680937599392,79.26749156190674
7.22,0.4229570797110386,0.03337110148774251,79.05462226228336
7.23,0.4148367849832372,0.02873242720307339,78.90813156146726
7.24,0.43573902511591117,0.024686409092366902,78.78453003265369
7.25,0.4502252299081001,0.05768140185432544,78.62659474583634
7.26,0.4792477647685755,0.06405245572442382,78.47094837621924
7.27,0.5111274403666106,0.1011048638312035,78.29012391739938
7.28,0.5268166517851405,0.09185030973009459,78.04520977697248
7.29,0.5505760326553742,0.12600782037174907,77.82089589134785
7.3,0.566816622110977,0.11095207410627507,77.56224824771944
7.31,0.635839127297289,0.1862194081995304,77.30360060409102
7.32,0.6817037549265377,0.1914279441899328,77.11362047647016
7.33,0.7333327893070034,0.23543266510665886,77.04495296046261
7.34,0.772781381595767,0.23311902658138164,77.20288824727996
7.35,0.840049502118665,0.2811811628429288,78.2466344905946
7.36,0.8284204380640359,0.22617811100554994,81.6342319469667
7.37,0.8348364734045209,0.22443433418600603,88.4231603629124
7.38,0.7315784046435895,0.1219504050269279,97.55593999191554
7.39,0.6573428707431335,0.08721163544542546,106.31791503447795
7.4,0.5772928048153628,0.024686409092366902,112.82759555199297
7.41,0.5256637704348971,0.020047734807697774,116.76453313642541
7.42,0.4827064088193057,-0.02685188357415347,118.78335810704716
7.43,0.4502252299081001,-0.029746781039278677,119.4128103371163
7.44,0.445012201193956,-0.05116218394073639,118.86347020905596
7.45,0.4688217073402873,-0.012947257954260757,117.28182842368223
7.46,0.44852097052078377,-0.04653490689018193,114.13914510773704
7.47,0.4571926432856581,-0.029746781039278677,109.65057847804401
7.48,0.4391976691666414,-0.06679918914605837,104.83698560591529
7.49,0.4670673226768734,-0.03206041956455591,100.32781872142
7.5,0.4792477647685755,-0.03147916062470793,96.55797209260592
7.51,0.49433547287393487,-0.012947257954260757,93.69682559229166
7.52,0.4664658193637029,-0.05059232223500308,91.67571170446965
7.53,0.4810021494319894,-0.03089790168485996,90.40765157553037
7.54,0.47809488341833206,-0.04942980435530713,89.64544214784665
7.55,0.49839562023783557,-0.016423414359233935,89.23114813460114
7.56,0.48215503078223276,-0.04653490689018193,88.94961131897021
7.57,0.4682202040271168,-0.03553657596952908,88.67036342053954
7.58,0.492581088210521,-0.03322293744425186,88.33389259210259
7.59,0.46360867862614313,-0.03206041956455591,87.71588494803471
7.6,0.4734332327412609,-0.040745111959931524,86.85296316353993
7.61,0.46185429396272926,-0.03553657596952908,85.85270634703005
7.62,0.46070141261248587,-0.05290596076028031,84.93256163252899
7.63,0.4688217073402873,-0.03437405808983314,84.25961997565507
7.64,0.46591444132662996,-0.04769742476987788,83.87965972041334
7.65,0.4409520538300553,-0.054057081405861594,83.83388137640831
7.66,0.4670673226768734,-0.04537238901048598,84.03530609003043
7.67,0.4774933801051616,-0.01585355265350063,84.51826761928348
7.68,0.5216036230709964,-0.005425083438581092,85.16832010415489
7.69,0.5216036230709964,-0.023375727169180294,86.02208621984866
7.7,0.5563905646826889,-0.03379279914998516,87.15510023397312
7.71,0.6005008076485236,-0.005425083438581092,88.41171577691114
7.72,0.6578942487802064,-0.00658760131827704,89.53328520503433
7.73,0.6509268354026484,0.03626599895286772,90.3641621487256
7.74,0.596440660284623,0.02294263227282298,90.80134533397361
7.75,0.5442101225909868,0.007886886007348982,90.83567909197738
7.76,0.48215503078223276,-0.043640009425056726,90.54269769034521
7.77,0.4641600566632161,-0.039582594080235574,90.02769132028864
7.78,0.4218041983607952,-0.08764473034178277,89.29752673340843
7.79,0.43749340977932505,-0.053487219700128284,88.41171577691114
7.8,0.4229570797110386,-0.08185493541153235,87.42519246360278
7.81,0.42877161173835315,-0.061009394215807956,86.43638023309417
7.82,0.44040067579298237,-0.06911282767133559,85.50479093259185
7.83,0.37253105195691383,-0.07837877900655918,84.70824774690435
7.84,0.42471146437445245,0.01021192176674088,83.96892749122314
7.85,0.9595481603351993,0.30317782468423454,83.31658608915149
7.86,2.077893195347404,0.24759351390700765,82.70086736228386
7.87,2.715987960069082,0.013676680937599392,82.16297182022477
7.88,1.5082695577749645,-0.31866666584606584,81.73494430377777
7.89,0.5645108594104903,-0.17680529282081614,81.34353946253476
7.9,0.5331825618495281,-0.054057081405861594,80.97273487609404
7.91,0.5216036230709964,-0.01874845011862583,80.64770863365834
7.92,0.4774933801051616,-0.043640009425056726,80.43483933403496
7.93,0.4920297101734481,0.0015272293713652653,80.24257028921384
7.94,0.4833079121324762,-0.017585932238929885,79.98621156278568
7.95,0.4972427388875922,0.007886886007348982,79.73900850515852
7.96,0.5053630336153936,0.0003647114916693171,79.56962863233993
7.97,0.5273680298222134,0.04089327600342218,79.43458251752509
7.98,0.5819043302163365,0.06694735318954902,79.3018253199105
7.99,0.554084801982202,0.05826266079417341,79.09811168908813
8.0,0.587718862243651,0.06173881719914659,78.81886379065746
8.01,0.6057138363626677,0.0883741533251214,78.57166073303031
8.02,0.6445609253382609,0.10574353811587263,78.30156850340065
8.03,0.6578942487802064,0.1277401999571783,78.04520977697248
8.04,0.7217037252523743,0.1578516924881263,77.7522283753403
8.05,0.772781381595767,0.21343600326535317,77.56224824771944
8.06,0.8203001433362345,0.22212069566072878,77.56224824771944
8.07,0.8690720369791405,0.2556969473625353,78.04520977697248
8.08,0.9137336579820482,0.2614867422927857,80.00681181758794
8.09,0.9276183594610666,0.25917310376750846,84.8661830337217
8.1,0.909072007304977,0.21401726220520115,92.87739323460164
8.11,0.8249617940133056,0.1549567950230011,101.97583910560103
8.12,0.7153378151879867,0.05942517867386936,109.6276893060415
8.13,0.6289218391958286,0.02294263227282298,114.80064217860969
8.14,0.5848115962299938,-0.004843824498733118,117.69612243692774
8.15,0.5563905646826889,-0.0007978063880266312,119.16560727948914
8.16,0.49779411692466513,-0.06448555062078114,119.36703199311127
8.17,0.5291224144856274,-0.014109775833956706,118.45833186461145
8.18,0.5245108890846537,-0.03379279914998516,116.47384065199348
8.19,0.5076687963158804,-0.041326370899779495,112.9489081636063
8.2,0.519247735094412,-0.04537238901048598,108.61827682073063
8.21,0.5140347063802679,-0.039012732374502264,104.31053464985746
8.22,0.5268166517851405,-0.044802527304752676,100.46286483623483
8.23,0.5047615303022231,-0.05811449675068275,97.23091374947984
8.24,0.5314281771861141,-0.05116218394073639,94.78406126241107
8.25,0.5221550011080693,-0.04884854541545916,93.10170712022628
8.26,0.5395484719139155,-0.04711616583002991,92.05796087691164
8.27,0.5453630039412302,-0.02510810675460955,91.4193529780415
8.28,0.5273680298222134,-0.04942980435530713,91.1034824044068
8.29,0.5395484719139155,-0.02279446822933232,90.91350227678593
8.3,0.5413028565773295,-0.039012732374502264,90.63425437835527
8.31,0.5424557379275728,-0.01874845011862583,90.24056061991202
8.32,0.5047615303022231,-0.06679918914605837,89.60195272104187
8.33,0.5180948537441686,-0.03668769661511037,88.79396494935312
8.34,0.5157890910436818,-0.054057081405861594,87.89442048965432
8.35,0.5239093857714832,-0.030328039979126652,87.00860953315701
8.36,0.5111274403666106,-0.054057081405861594,86.23495551947204
8.37,0.5047615303022231,-0.04826728647561119,85.67417080541044
8.38,0.5099745590163672,-0.05232470182043234,85.39263398977953
8.39,0.5007013829383224,-0.05059232223500308,85.43841233378456
8.4,0.5117289436797811,-0.0569519788709868,85.78632774822276
8.41,0.4914282068602776,-0.055219599285557544,86.34711246228436
8.42,0.5082702996290509,-0.058695755690530725,86.99716494715577
8.43,0.5018542642885658,-0.04942980435530713,87.70444036203345
8.44,0.5175434757070957,-0.04942980435530713,88.46664978971717
8.45,0.5778441828524358,-0.01931831182435914,89.27463756140592
8.46,0.6028065703490104,-0.03206041956455591,89.97046839028235
8.47,0.6445609253382609,-0.011796137308679476,90.46487450553666
8.48,0.7020044917460412,-0.0031114449133038615,90.64341004715627
8.49,0.6886711683040957,0.037998378538296976,90.46487450553666
8.5,0.6195985378416862,0.0194664758678498,89.94757921827984
8.51,0.5813529521792635,0.016571578402724597,89.23114813460114
8.52,0.5146362096934384,-0.043058750485208755,88.45749412091617
8.53,0.4931825915236915,-0.05059232223500308,87.66095093522867
8.54,0.4763404987549182,-0.07317024301615674,86.85296316353993
8.55,0.4583455246359015,-0.06738044808590633,85.99919704784615
8.56,0.4763404987549182,-0.07606514048128195,85.22554303416116
8.57,0.4571926432856581,-0.07954129688625512,84.45188902047619
8.58,0.47403473605443136,-0.07954129688625512,83.75605819159976
8.59,0.438044787816398,-0.053487219700128284,83.12660596153061
8.6,0.5169419723939253,0.054205245449352256,82.55437666146777
8.61,1.1643099131936483,0.33618421468030774,82.07141513221472
8.62,2.227567269774657,0.20764620833510278,81.61134277496419
8.63,2.6144842759715647,-0.09227200739233724,81.27487194652723
8.64,1.2588461839136078,-0.3383496891620943,80.96129029009278
8.65,0.5772928048153628,-0.1356954693692153,80.70264264646437
8.66,0.5395484719139155,-0.07258898407630877,80.46688417483848
8.67,0.5488717732680579,-0.014109775833956706,80.1876362764078
8.68,0.5343354431997714,-0.015272293713652654,79.94043321878065
8.69,0.527969533135384,0.0026783500169465474,79.73900850515852
8.7,0.5030071456388092,-0.022213209289484344,79.51469461953388
8.71,0.521002119757826,0.009630662826892905,79.3018253199105
8.72,0.5349369465129419,0.009630662826892905,79.09811168908813
8.73,0.5413028565773295,0.029313686142921364,78.95390990547229
8.74,0.5789970642026792,0.04552055305397664,78.86235321746224
8.75,0.5784456861656062,0.05710014291447746,78.68381767584262
8.76,0.596440660284623,0.04320691452869941,78.43661461821547
8.77,0.609172480413398,0.07215588917995146,78.17796697458706
8.78,0.6573428707431335,0.09764010466034499,77.8987190761564
8.79,0.725212494579202,0.17405855939918158,77.59429308852295
8.8,0.7478189940991923,0.16364148741837672,77.34937894809605
8.81,0.7976936438162442,0.20590243151555884,77.1914436612787
8.82,0.8429567681323223,0.21112236474007595,77.29215601808977
8.83,0.8922299145362037,0.25685946524223124,78.13447754778228
8.84,0.9508263622942275,0.2678577961628841,80.99562404809656
8.85,0.9183451833830218,0.23138664699595238,86.97427577515325
8.86,0.9235582120971659,0.20764620833510278,95.45700291928499
8.87,0.8406510054318356,0.15668917460843038,104.14115477703886
8.88,0.7408515807216344,0.0733184070596474,110.95297236498706
8.89,0.6602501367567908,0.05074048627849374,115.36142689267129
8.9,0.6155383904777855,0.01021192176674088,117.88610256454861
8.91,0.5442101225909868,-0.01700467329908191,118.9412933938645
8.92,0.5453630039412302,-0.021643347583751037,118.72842409424112
8.93,0.5186963570573391,-0.028003004219734756,117.51758689530813
8.94,0.5018542642885658,-0.058695755690530725,115.00435580943207
8.95,0.5111274403666106,-0.030328039979126652,111.11090765180441
8.96,0.5291224144856274,-0.03668769661511037,106.66583044891617
8.97,0.5198492384075825,-0.028003004219734756,102.33519910604049
8.98,0.5459645072544006,-0.02685188357415347,98.63401999323395
8.99,0.5291224144856274,-0.03726895555495834,95.76142890691843
9.0,0.5424557379275728,-0.03206041956455591,93.69682559229166
9.01,0.5233078824583127,-0.03264167850440388,92.33949769254257
9.02,0.5366913311763558,-0.03843147343465429,91.55211017565608
9.03,0.5337840651626985,-0.02510810675460955,91.17214992041434
9.04,0.5366913311763558,-0.03379279914998516,90.9478360347897
9.05,0.5354883245500148,-0.016423414359233935,90.7784561619711
9.06,0.5314281771861141,-0.03147916062470793,90.53125310434395
9.07,0.5146362096934384,-0.021643347583751037,90.13984826310096
9.08,0.5175434757070957,-0.03553657596952908,89.54472979103559
9.09,0.5036086489519797,-0.027433142514001446,88.73674201934683
9.1,0.5059144116524665,-0.04190762983962747,87.80515271884451
9.11,0.4815535274690623,-0.04537238901048598,86.87356341834219
9.12,0.5256637704348971,-0.019899570764207116,86.06557564665344
9.13,0.4745861140915043,-0.044802527304752676,85.48419067778958
9.14,0.4850622967958901,-0.057533237810834775,85.22554303416116
9.15,0.499548501588079,-0.03264167850440388,85.32625539097224
9.16,0.4722803513910175,-0.06621793020621039,85.6055032894029
9.17,0.5088216776661239,-0.021643347583751037,86.03353080584992
9.18,0.5169419723939253,-0.039582594080235574,86.58287093391026
9.19,0.5772928048153628,0.004991988542223778,87.33363577559273
9.2,0.5836587148797503,-0.01237739624852745,88.24233590409253
9.21,0.6341348679099726,0.003259608956794522,89.10754660578756
9.22,0.6683704314845922,0.009049403887044932,89.82626660666651
9.23,0.6549869827665491,0.05131034798422705,90.27489437791579
9.24,0.5772928048153628,0.01252556029201811,90.3641621487256
9.25,0.5372427092134288,0.026418788677796158,90.11695909109844
9.26,0.4682202040271168,-0.05174344288058436,89.64544214784665
9.27,0.47578912071784524,-0.0262706246343055,89.06176826178253
9.28,0.458947027949072,-0.06563667126636241,88.29955883409882
9.29,0.42877161173835315,-0.06390429168093316,87.43434813240378
9.3,0.43107737443884,-0.08185493541153235,86.55998176190775
9.31,0.4270172270749393,-0.05811449675068275,85.6856153914117
9.32,0.44155355714322575,-0.07142646619661282,84.8890722057242
9.33,0.34581427979692525,-0.04190762983962747,84.20468596284904
9.34,0.5784456861656062,0.16595512594365394,83.57523373277989
9.35,1.4062144956403742,0.29623690910840283,83.02589360471956
9.36,2.4439079614116377,0.18390576967425315,82.51088723466299
9.37,2.3250108065082737,-0.19360481590583406,81.99359194740617
9.38,0.9485205995937406,-0.2931824503656723,81.45569640534708
9.39,0.5099745590163672,-0.09632942273715839,81.05055806090259
9.4,0.5024557676017363,-0.044802527304752676,80.77131016247192
9.41,0.5088216776661239,-0.007738721963858323,80.54699627684728
9.42,0.4966412355744217,-0.01700467329908191,80.35472723202616
9.43,0.4769420020680887,-0.0019489270336079134,80.107524174399
9.44,0.49433547287393487,-0.008901239843554272,79.79394251796457
9.45,0.5123304469929516,0.025837529737948183,79.5467394603374
9.46,0.527969533135384,0.02294263227282298,79.39109309072032
9.47,0.547117388604644,0.05768140185432544,79.21026863190045
9.48,0.5488717732680579,0.034522222133323795,79.03173309028084
9.49,0.5598993340095166,0.05942517867386936,78.88524238946475
9.5,0.6068667177129111,0.07737582240446855,78.69526226184388
9.51,0.6039594516992538,0.09242017143582788,78.44805920421673
9.52,0.6596486334436202,0.11557935115682953,78.21230073259083
9.53,0.6880696649909251,0.15437553608315313,78.02232060496996
9.54,0.732731285993833,0.15958407207355557,77.82089589134785
9.55,0.7779944103099111,0.20358879299028163,77.61718226052547
9.56,0.8504755595469533,0.2308053880561044,77.51646990371441
9.57,0.8696234150162134,0.24759351390700765,77.9216082481589
9.58,0.9282198627742371,0.24527987538173043,79.81683168996707
9.59,0.9171923020327784,0.2337002855212296,84.60753539009329
9.6,0.8603502389381685,0.15032951797244665,92.3051639345388
9.61,0.7837588170611282,0.11384697157140027,100.9778712062914
9.62,0.7333327893070034,0.07505078664507667,108.30469516429618
9.63,0.6155383904777855,0.013106819231866084,113.37693568005332
9.64,0.568571006774391,-0.03437405808983314,116.40517313598593
9.65,0.5285710364485544,-0.03379279914998516,117.7968347937388
9.66,0.5459645072544006,-0.029165522099430703,117.86550230974633
9.67,0.4966412355744217,-0.0442212683649047,116.84235632123395
9.68,0.5070672930027099,-0.06390429168093316,114.5648837069838
9.69,0.519247735094412,-0.030328039979126652,110.8293708361735
9.7,0.5233078824583127,-0.05174344288058436,106.39802713648675
9.71,0.5146362096934384,-0.0442212683649047,102.12232980641711
9.72,0.5302752958358707,-0.06679918914605837,98.29754916479699
9.73,0.5419043598904999,-0.03264167850440388,95.12053209084803
9.74,0.547117388604644,-0.05116218394073639,92.82017030459536
9.75,0.520450741720753,-0.05232470182043234,91.28430686322666
9.76,0.554636180019275,-0.04942980435530713,90.28633896391705
9.77,0.5372427092134288,-0.03495531702968111,89.71410966385419
9.78,0.5285710364485544,-0.06563667126636241,89.38679450421824
9.79,0.5366913311763558,-0.03206041956455591,89.17392520459485
9.8,0.5268166517851405,-0.058695755690530725,88.90612189216544
9.81,0.5320296804992847,-0.03206041956455591,88.41171577691114
9.82,0.5401499752270861,-0.04884854541545916,87.71588494803471
9.83,0.5175434757070957,-0.03843147343465429,86.81862940553616
9.84,0.513483328343195,-0.058695755690530725,85.87559551903257
9.85,0.49779411692466513,-0.05001106329515511,85.01267373453778
9.86,0.5175434757070957,-0.054057081405861594,84.33973207766387
9.87,0.4954883542241783,-0.0592770146303787,84.01241691802792
9.88,0.5111274403666106,-0.0720077251364608,84.00097233202666
9.89,0.5070672930027099,-0.04884854541545916,84.36033233246613
9.9,0.513483328343195,-0.06969408661118356,84.92111704652773
9.91,0.521002119757826,-0.04826728647561119,85.63983704740667
9.92,0.5569920679958593,-0.053487219700128284,86.49360316310045
9.93,0.5726311541382917,-0.043058750485208755,87.49157106241007
9.94,0.6242601885187573,-0.029746781039278677,88.55820647772723
9.95,0.6666160468211783,-0.010633619428983526,89.52184061903307
9.96,0.6851623989772679,-0.016423414359233935,90.21767144790951
9.97,0.6590471301304498,0.039160896417992926,90.44198533353415
9.98,0.594686275621209,0.00442212683649047,90.22911603391076
9.99,0.5494231513051309,-0.0025301859734558874,89.78048826266148
