time_s,ECG,NIBP
0.0,-0.2062934822597134,79.49673514890907
0.01,-0.18888702107391642,78.45962732919254
0.02,-0.16724558582642038,78.39847109412327
0.03,-0.1387133453259903,77.54355789138398
0.04,-0.1031467411298567,77.02500398152571
0.05,-0.059038409588940244,75.89616180920528
0.06,-0.003983746786852503,75.37760789934703
0.07,0.0647089680783339,74.27806975633062
0.08,0.14373789082292138,74.06529702181876
0.09,0.2195726382158884,74.18760949195732
0.1,0.28471228162253065,75.10240484153528
0.11,0.33768534700446123,77.97165153686893
0.12,0.3732160615899025,79.58846950151298
0.13,0.36485378229858145,85.32568880394967
0.14,0.2909929634936945,95.67128523650263
0.15,0.1687529494754997,104.88803949673515
0.16,0.03678685095967401,113.92132505175984
0.17,-0.08042861756158971,117.85825768434464
0.18,-0.17076276767427215,119.38334129638477
0.19,-0.22567387203359043,119.26102882624622
0.2,-0.25725672944287153,119.81016085363912
0.21,-0.2758834373922089,119.90189520624303
0.22,-0.2859325283860711,120.32998885172798
0.23,-0.29023928166915486,119.75027870680044
0.24,-0.2877628985313817,119.50565376652334
0.25,-0.2812309893853713,118.22392100652971
0.26,-0.277857365980289,117.46074215639433
0.27,-0.27419662568966774,116.05669692626215
0.28,-0.2688490736965054,116.0261188087275
0.29,-0.25955366452718287,115.72161172161172
0.3,-0.24505426180746748,115.96496257365823
0.31,-0.22215669018573866,114.62334766682592
0.32,-0.19118395615822778,113.55438764134416
0.33,-0.15716060522186584,111.87641344163083
0.34,-0.1335093517755974,111.05207835642618
0.35,-0.12572130625535421,106.84121675426023
0.36,-0.12162989063642461,103.63688485427616
0.37,-0.12482406598804509,99.85284280936455
0.38,-0.15213605972493477,97.28937728937728
0.39,-0.2171321446888076,94.90810638636725
0.4,-0.2802978595073698,93.26071030418856
0.41,-0.29892456745670715,91.42984551680203
0.42,-0.3019751843655582,90.6972447842013
0.43,-0.30958378183233953,89.47666825927695
0.44,-0.3143212104437317,89.62828475871954
0.45,-0.3129574052374218,89.72001911132345
0.46,-0.30897365845056934,90.11753463927377
0.47,-0.3071432883052587,89.81175346392737
0.48,-0.30836353506879915,90.0563784042045
0.49,-0.3080764181832602,90.17869087434305
0.5,-0.3161515805890423,90.75840101927058
0.51,-0.4142737762219679,90.36088549132027
0.52,-0.5361907837439315,90.78897913680522
0.53,-0.09460501378507385,90.6972447842013
0.54,1.0399014698112727,90.81955725433987
0.55,1.4303445445335103,87.88915432393694
0.56,0.43853515305000657,86.63799968147794
0.57,-0.33370160021760875,85.20337633381112
0.58,-0.27311993736889684,84.1662685140946
0.59,-0.20539624199240428,83.52540213409779
0.6,-0.25650304761833187,83.55598025163242
0.61,-0.25406255409125106,82.76222328396241
0.62,-0.24078339813507604,82.45771619684663
0.63,-0.23665609290545409,82.02962255136168
0.64,-0.22872448894244143,81.63338111164198
0.65,-0.21684502780326867,80.56569517439083
0.66,-0.20080237182378155,80.19875776397515
0.67,-0.1827857872562144,78.79471253384297
0.68,-0.16893239752896153,78.12326803631152
0.69,-0.15274618310670499,76.84153527631788
0.7,-0.12679799457612514,75.92673992673993
0.71,-0.09108783193722209,74.70616340181557
0.72,-0.05218349394669855,73.9429845516802
0.73,-0.007788045520243181,72.99633699633699
0.74,0.047158948449767465,72.63067367415194
0.75,0.11656945552880116,71.83691670648193
0.76,0.1910403977154583,72.02038541168976
0.77,0.25969722296995235,71.98980729415511
0.78,0.31755127540604455,73.08807134894091
0.79,0.36133660045072974,77.11673833412964
0.8,0.38315748375168757,78.73355629877369
0.81,0.36101359395449845,78.39847109412327
0.82,0.276780677659518,86.6074215639433
0.83,0.1495520077550845,97.31995540691193
0.84,0.022574565125497516,107.75601210383819
0.85,-0.08696052670760013,114.59276954929129
0.86,-0.17302381314789114,117.82767956681
0.87,-0.2253867551480515,118.04045230132186
0.88,-0.2563594891755624,118.65074056378404
0.89,-0.27114600878081674,117.88756171364867
0.9,-0.27649356077397913,117.64421086160216
0.91,-0.27861104780482865,117.30785156872113
0.92,-0.2749503075142074,117.18681318681318
0.93,-0.26841839836819703,116.3318999840739
0.94,-0.26228127493980263,116.1790093964007
0.95,-0.2531294242132496,115.0807453416149
0.96,-0.24598739168546896,114.62334766682592
0.97,-0.2461309501282384,113.21930243669374
0.98,-0.24918156703708944,111.57063226628443
0.99,-0.25190917744970914,110.13728300684822
1.0,-0.2531294242132496,108.85555024685459
1.01,-0.2436904566011576,106.87179487179488
1.02,-0.221403008361199,106.16977225672878
1.03,-0.1938038977387704,104.58225832138875
1.04,-0.16982963779627067,102.04937091893613
1.05,-0.1564069233973262,98.26532887402453
1.06,-0.1542535467557843,97.71619684663163
1.07,-0.1632618390395679,92.71157827679566
1.08,-0.19165052109722852,90.9405956362478
1.09,-0.255139242412022,89.59898072941552
1.1,-0.32042244426143374,89.01799649625737
1.11,-0.34698075617378377,88.25609173435261
1.12,-0.35537892507579716,88.43828635132984
1.13,-0.36119304200796026,88.10320114667941
1.14,-0.3660740290621219,88.43828635132984
1.15,-0.3717086979408232,88.07262302914476
1.16,-0.3715651394980537,88.46886446886447
1.17,-0.36729427582566226,87.76684185379838
1.18,-0.3645307758023502,88.22551361681796
1.19,-0.3633105290388098,88.16435738174869
1.2,-0.3666841524438921,88.31724796942189
1.21,-0.43548453614115556,86.57684344640866
1.22,-0.5825960503691593,85.78308647873865
1.23,-0.3289641716062166,85.32568880394967
1.24,0.7203762658171481,84.65424430641822
1.25,1.3999819338877697,84.19684663162924
1.26,0.6091184726708169,83.89106545628285
1.27,-0.33341448333206986,82.1213569039656
1.28,-0.38010686684283657,81.69453734671126
1.29,-0.25696961255733264,81.38875617136486
1.3,-0.294187138845315,80.96193661411053
1.31,-0.2995346908384774,80.16817964644052
1.32,-0.27573987894943947,79.46615703137442
1.33,-0.26457821002411397,78.73355629877369
1.34,-0.2580104112674112,78.55136168179646
1.35,-0.252088625503171,77.60471412645326
1.36,-0.24354689815838815,77.60471412645326
1.37,-0.22782724867513232,75.86558369167065
1.38,-0.2099542225503346,75.4387641344163
1.39,-0.1936244496853086,74.40038222646918
1.4,-0.17198301443781255,73.45500875935659
1.41,-0.1397541440360689,72.72240802675586
1.42,-0.10346974762608797,72.29431438127091
1.43,-0.06287859793302329,71.25720656155438
1.44,-0.010515655932862912,71.3489409141583
1.45,0.05537766929831903,70.49402771141902
1.46,0.12712100107235644,70.18952062430323
1.47,0.1991155601212404,69.73084886128365
1.48,0.2659779048411162,70.12836438923395
1.49,0.31722826890981326,70.34241121197643
1.5,0.34852400943355544,72.78356426182513
1.51,0.3468371977310143,79.19222806179327
1.52,0.283958599797991,89.56840261188087
1.53,0.1709063261170416,99.69995222169135
1.54,0.04120127307483489,109.34352603917822
1.55,-0.07949548768358823,114.1340977862717
1.56,-0.17363393652966133,115.14190157668419
1.57,-0.23407204093560383,116.42363433667782
1.58,-0.26992576201727636,116.81987577639751
1.59,-0.29494082066985466,116.45421245421245
1.6,-0.30638960648071906,116.85045389393215
1.61,-0.3079328597404908,116.14843127886606
1.62,-0.30380555451086877,116.39305621914318
1.63,-0.2929668920817746,115.782767956681
1.64,-0.2796877361255996,116.0261188087275
1.65,-0.2697822035745069,114.19525402134097
1.66,-0.2628913983215728,112.30323299888518
1.67,-0.25696961255733264,111.17439082656475
1.68,-0.2580104112674112,110.01497053670967
1.69,-0.2644346515813445,107.66427775123427
1.7,-0.2626042814360339,106.38254499124065
1.71,-0.25190917744970914,104.27775123427297
1.72,-0.2310214240267528,102.44688644688645
1.73,-0.2018790601445525,99.82226469182991
1.74,-0.176253878110204,97.93024366937411
1.75,-0.15838085198540627,94.2366618888358
1.76,-0.15213605972493477,92.16244624940278
1.77,-0.15565324157278654,90.36088549132027
1.78,-0.18723609898206764,88.86637999681479
1.79,-0.255139242412022,87.76684185379838
1.8,-0.30732273635872054,87.58464723682116
1.81,-0.32257582090297565,86.94378085682433
1.82,-0.32806693133890746,87.18713170887084
1.83,-0.333235035278608,86.88262462175506
1.84,-0.33309147683583856,87.18713170887084
1.85,-0.33158411318675923,86.6074215639433
1.86,-0.3372187820654605,87.09539735626691
1.87,-0.33951571714977186,87.30944417900939
1.88,-0.3352448534773804,87.91973244147157
1.89,-0.33614209374468956,87.58464723682116
1.9,-0.3544457951977957,88.04204491161013
1.91,-0.46922077019197855,87.64580347189043
1.92,-0.5503671799674156,86.79089026915113
1.93,0.042888084777376045,86.0582895365504
1.94,1.1311328601912642,85.75378244943462
1.95,1.186689977543045,84.3191591017678
1.96,0.1341194751573676,83.46424589902851
1.97,-0.4092492307250368,82.21309125656951
1.98,-0.283958599797991,81.66395922917663
1.99,-0.24476714492192855,81.23713967192228
2.0,-0.2824512361489117,81.14540531931836
2.01,-0.2749503075142074,79.77193820672082
2.02,-0.258189859320873,79.2839624143972
2.03,-0.24810487871631848,78.61251791686574
2.04,-0.24002971631053638,78.15384615384616
2.05,-0.23435915782114272,77.69644847905718
2.06,-0.22660700191159192,78.06211180124224
2.07,-0.20643704070248284,76.23124701385571
2.08,-0.18249867037067546,76.04905239687848
2.09,-0.15992410524517794,74.94951425386208
2.1,-0.13670352712721787,74.7978977544195
2.11,-0.11046822171109913,73.69835961140309
2.12,-0.07691143571373796,73.27154005414874
2.13,-0.03082917558474144,72.63067367415194
2.14,0.028065675561429346,72.20385411689759
2.15,0.09751207225115541,71.04315973881191
2.16,0.17076276767427215,70.34241121197643
2.17,0.23651253446268464,69.48749800923714
2.18,0.28991627517292357,69.91431756649148
2.19,0.32821048978167694,70.46344959388438
2.2,0.3452939444712426,70.83038700430005
2.21,0.31737182735258274,80.56569517439083
2.22,0.23026774220221313,91.55088389870998
2.23,0.10605379959593825,101.28619206880076
2.24,-0.017837136514105352,109.89265806657112
2.25,-0.1204096438728842,113.86016881669056
2.26,-0.19775175491493055,115.6298773690078
2.27,-0.2499352488616291,116.14843127886606
2.28,-0.27954417768283013,116.7281414237936
2.29,-0.2929668920817746,116.4847905717471
2.3,-0.2943306972880845,116.81987577639751
2.31,-0.28840891152384424,116.54594680681637
2.32,-0.274806749071438,116.85045389393215
2.33,-0.2610610281762622,116.94218824653608
2.34,-0.2528423073277106,117.15623506927855
2.35,-0.24415702154015834,116.60582895365503
2.36,-0.23313891105760232,116.51536868928173
2.37,-0.2264275538581301,111.38843764930722
2.38,-0.2270376772399003,108.54976907150821
2.39,-0.22843737205690254,106.01688166905558
2.4,-0.22308982006374015,105.0103519668737
2.41,-0.20966710566479568,103.30052556139513
2.42,-0.18357535869144642,101.89648033126294
2.43,-0.15335630648847517,99.730530339226
2.44,-0.13655996868444842,97.71619684663163
2.45,-0.1278746828968961,94.87752826883262
2.46,-0.11872283217034306,92.16244624940278
2.47,-0.12773112445412665,90.0563784042045
2.48,-0.1777612417592833,88.98741837872272
2.49,-0.2511554956251695,87.49291288421723
2.5,-0.2920696518144655,87.27886606147476
2.51,-0.29892456745670715,86.82146838668578
2.52,-0.3016521778693269,87.1565535913362
2.53,-0.3024417493045589,87.00493709189361
2.54,-0.30549236621340997,87.58464723682116
2.55,-0.31450065849719355,87.70568561872909
2.56,-0.32013532737589484,88.01146679407549
2.57,-0.32013532737589484,88.04204491161013
2.58,-0.31737182735258274,88.37713011626055
2.59,-0.31661814552804307,88.49944258639911
2.6,-0.36377709397781055,88.86637999681479
2.61,-0.5146929069392049,88.53002070393374
2.62,-0.40709585408349497,88.86637999681479
2.63,0.509201796503273,88.65233317407231
2.64,1.4070162975834732,88.74406752667622
2.65,0.9115602219753759,85.14222009874184
2.66,-0.12773112445412665,83.73944895684026
2.67,-0.3544457951977957,82.70106704889314
2.68,-0.22567387203359043,81.66395922917663
2.69,-0.252088625503171,80.5351170568562
2.7,-0.27617055427774784,80.01528905876732
2.71,-0.263501521703343,79.31454053193184
2.72,-0.25711317100010206,78.94760312151617
2.73,-0.2502582553578604,78.15384615384616
2.74,-0.23496928120291294,77.30020703933748
2.75,-0.21666557974980685,75.86558369167065
2.76,-0.20399654717540203,74.91893613632745
2.77,-0.1922606444789987,74.18760949195732
2.78,-0.17503363134666358,74.03471890428412
2.79,-0.1554737935193247,73.72893772893772
2.8,-0.12970505304220672,73.02691511387164
2.81,-0.09596881899138372,72.63067367415194
2.82,-0.05598779268008923,72.26501035196688
2.83,-0.006101233817702031,71.3489409141583
2.84,0.05921785764240207,71.74518235387801
2.85,0.13580628685990875,70.7998088867654
2.86,0.21300483945918564,70.83038700430005
2.87,0.2800107426218309,70.92212135690397
2.88,0.32882061316344713,73.14922758401019
2.89,0.35781941860287797,80.44338270425227
2.9,0.3555224835185666,91.00175187131708
2.91,0.2986015609604759,92.07071189679885
2.92,0.18906646912737823,101.775441949355
2.93,0.06025865635248065,109.86207994903647
2.94,-0.057674604382630376,114.65392578436057
2.95,-0.15152593634316455,116.27074374900462
2.96,-0.21774226807057778,116.78929765886288
2.97,-0.26152759311526297,117.21739130434783
2.98,-0.28733222320307333,117.58305462653288
2.99,-0.29587395054785615,117.6747889791368
3.0,-0.29526382716608596,117.91813983118331
3.01,-0.2961610674333951,117.64421086160216
3.02,-0.29343345702077533,117.30785156872113
3.03,-0.28700921670684204,116.94218824653608
3.04,-0.27907761274382936,116.81987577639751
3.05,-0.2693156386355061,115.81334607421564
3.06,-0.2592306580309516,114.62334766682592
3.07,-0.2500788073043986,113.37219302436694
3.08,-0.244910703364698,112.82178690874343
3.09,-0.244910703364698,111.57063226628443
3.1,-0.2499352488616291,110.16786112438287
3.11,-0.25373954759501977,108.36630036630036
3.12,-0.2548162359157907,107.17630195891066
3.13,-0.24964813197609018,104.52110208631947
3.14,-0.22811436556067125,102.26341774167861
3.15,-0.19714163153316033,99.85284280936455
3.16,-0.16814282609372952,97.19764293677338
3.17,-0.14589126746446326,94.17550565376652
3.18,-0.13426303360013706,92.65042204172639
3.19,-0.12984861148497617,90.75840101927058
3.2,-0.14083083235683982,90.11753463927377
3.21,-0.18906646912737823,89.07915273132664
3.22,-0.25679016450387077,88.89695811434942
3.23,-0.2891625933483839,88.49944258639911
3.24,-0.29038284011192433,88.8052237617455
3.25,-0.2940435804025455,88.49944258639911
3.26,-0.3000012557774781,88.74406752667622
3.27,-0.3071432883052587,88.89695811434942
3.28,-0.3106604701531105,89.59898072941552
3.29,-0.3132804117336531,88.9581143494187
3.3,-0.3183049572305842,89.23204331899984
3.31,-0.31661814552804307,88.86637999681479
3.32,-0.31267028835188293,89.17088708393057
3.33,-0.37583600317044513,88.89695811434942
3.34,-0.5320634785143095,89.14030896639592
3.35,-0.33951571714977186,86.42395285873546
3.36,0.6716740641076089,85.32568880394967
3.37,1.4677415188749545,84.472049689441
3.38,0.7971082534774242,83.73944895684026
3.39,-0.20324286535086236,82.51887243191591
3.4,-0.32623656119359684,82.1213569039656
3.41,-0.20295574846532347,80.80904602643733
3.42,-0.24293677477661793,79.92482879439402
3.43,-0.2583334177636425,79.22280617932792
3.44,-0.24124996307407678,79.16164994425864
3.45,-0.23087786558398335,78.12326803631152
3.46,-0.221403008361199,78.30673674151934
3.47,-0.21347140439818638,77.05558209906036
3.48,-0.20460667055717224,76.04905239687848
3.49,-0.19150696265445905,74.8883580187928
3.5,-0.176253878110204,74.55327281414237
3.51,-0.1564069233973262,73.88182831661092
3.52,-0.12984861148497617,73.82067208154164
3.53,-0.10131637098454609,72.32489249880554
3.54,-0.0706307538425741,71.80633858894728
3.55,-0.027168435294120222,71.01258162127728
3.56,0.02899880543943083,70.49402771141902
3.57,0.09216452025799304,69.76142697881828
3.58,0.1669225793301891,69.27345118649467
3.59,0.24322389166215685,69.18171683389075
3.6,0.30958378183233953,70.1589425067686
3.61,0.3631669705960403,72.4472049689441
3.62,0.39991793194502195,81.08424908424908
3.63,0.4041887956174134,91.91782130912566
3.64,0.3513951782889446,102.32457397674789
3.65,0.24124996307407678,111.8458353240962
3.66,0.1112219035356388,113.3416149068323
3.67,-0.0031941753516204754,118.04045230132186
3.68,-0.09338476702153345,118.55900621118012
3.69,-0.16082134551248708,118.40738971173754
3.7,-0.2062934822597134,118.92594362159579
3.71,-0.22919105388144217,118.89536550406116
3.72,-0.2397067098143051,118.92594362159579
3.73,-0.2473511968917788,118.34623347666826
3.74,-0.2525193008314794,118.83420926899188
3.75,-0.24964813197609018,118.19334288899506
3.76,-0.24139352151684626,117.85825768434464
3.77,-0.23116498246952225,116.97276636407071
3.78,-0.21942907977311893,116.60582895365503
3.79,-0.20737017058048435,115.2336359292881
3.8,-0.19929500817470225,113.49323140627489
3.81,-0.19807476141116181,111.11323459149546
3.82,-0.1972851899759298,109.89265806657112
3.83,-0.19653150815139014,108.79439401178531
3.84,-0.19836187829670074,107.48208313425705
3.85,-0.20277630041186162,103.78850135371874
3.86,-0.2093440991685644,103.66746297181079
3.87,-0.21042078748933535,101.59197324414716
3.88,-0.19470113800607952,99.24255454690237
3.89,-0.17241368976612093,96.55677655677655
3.9,-0.14237408561661152,94.2366618888358
3.91,-0.1049771112751673,89.96464405160057
3.92,-0.08789365658560161,88.9581143494187
3.93,-0.08850377996737181,88.13377926421404
3.94,-0.0929182020825327,88.37713011626055
3.95,-0.12694155301889462,88.19493549928333
3.96,-0.19624439126585122,88.34655199872591
3.97,-0.24627450857100788,88.13377926421404
3.98,-0.2587999827026432,88.46886446886447
3.99,-0.26213771649703316,88.13377926421404
4.0,-0.2633579632605736,88.13377926421404
4.01,-0.26490121652034526,88.13377926421404
4.02,-0.26762882693296497,88.40770823379519
4.03,-0.26762882693296497,87.76684185379838
4.04,-0.26228127493980263,88.01146679407549
4.05,-0.25711317100010206,86.66857779901258
4.06,-0.2505453722433993,85.75378244943462
4.07,-0.2696386451317374,85.05175983436853
4.08,-0.4013176267620242,84.13569039655997
4.09,-0.43501797120215485,82.94569198917026
4.1,0.27907761274382936,81.69453734671126
4.11,1.3797043038465835,79.74136008918617
4.12,1.2899802771156712,78.61251791686574
4.13,0.18310879375244568,77.84933906673037
4.14,-0.2827383530344506,77.75760471412646
4.15,-0.14036426741783908,77.30020703933748
4.16,-0.12923848810320596,77.63529224398789
4.17,-0.16893239752896153,76.96384774645644
4.18,-0.1576271701608666,77.17789456919891
4.19,-0.14571181941100145,76.62876254180603
4.2,-0.14129739729584057,76.01847427934385
4.21,-0.13153542318751732,74.4921165790731
4.22,-0.11811270878857286,74.73674151935022
4.23,-0.10591024115316879,73.79009396400701
4.24,-0.09169795531899229,72.96575887880236
4.25,-0.07658842921750668,71.80633858894728
4.26,-0.05921785764240207,71.01258162127728
4.27,-0.035243597699902325,70.22009874183787
4.28,-0.0031941753516204754,70.1589425067686
4.29,0.038007097723214416,69.82258321388755
4.3,0.08803721502837107,70.06720815416467
4.31,0.14725507267077315,68.99952221691352
4.32,0.21300483945918564,68.87720974677497
4.33,0.2862555348823024,68.54085045389394
4.34,0.35781941860287797,68.81605351170569
4.35,0.41671426974904874,68.99952221691352
4.36,0.4562287311213425,70.76923076923077
4.37,0.47363519230713946,75.62095875139353
4.38,0.4505940622426412,76.41471571906355
4.39,0.36987832779551255,85.53973562669215
4.4,0.24688463195277807,97.22822105430801
4.41,0.1136623970627196,106.84121675426023
4.42,-0.0064242403139333154,114.89727663640707
4.43,-0.09460501378507385,118.95652173913044
4.44,-0.1536434233740141,119.47507564898869
4.45,-0.1898201509519179,119.26102882624622
4.46,-0.20568335887794317,119.8713170887084
4.47,-0.20981066410756516,119.26102882624622
4.48,-0.2093440991685644,119.23045070871157
4.49,-0.20216617703009143,118.10160853639114
4.5,-0.19211708603622926,117.6747889791368
4.51,-0.1882768976921462,116.60582895365503
4.52,-0.18188854698890528,115.75218983914637
4.53,-0.169075955971731,113.92132505175984
4.54,-0.16114435200871835,111.81525720656155
4.55,-0.15974465719171613,110.2888995062908
4.56,-0.16250815721502823,109.43526039178214
4.57,-0.16706613777295856,107.0539894887721
4.58,-0.16846583258996078,106.1086160216595
4.59,-0.172126572880582,104.36948558687689
4.6,-0.18249867037067546,103.11705685618729
4.61,-0.19089683927268886,100.73706004140787
4.62,-0.18906646912737823,100.82879439401178
4.63,-0.17363393652966133,95.67128523650263
4.64,-0.15288974154947443,93.44417900939641
4.65,-0.13365291021836684,90.6055104315974
4.66,-0.10619735803870771,88.56059882146839
4.67,-0.08071573444712864,86.66857779901258
4.68,-0.07249701359857708,86.51568721133938
4.69,-0.07386081880488694,86.15002388915433
4.7,-0.09385133196053419,86.51568721133938
4.71,-0.1551866766337858,86.08886765408505
4.72,-0.21806527456680908,86.85204650422041
4.73,-0.23819934616522578,86.51568721133938
4.74,-0.244910703364698,86.79089026915113
4.75,-0.25223218394594044,86.9132027392897
4.76,-0.2558929242365617,86.88262462175506
4.77,-0.2587999827026432,86.6074215639433
4.78,-0.260450904794492,86.54626532887403
4.79,-0.26152759311526297,86.2111801242236
4.8,-0.261240476229724,86.48510909380475
4.81,-0.2601637879089531,85.47857939162287
4.82,-0.273730060750667,84.99060359929925
4.83,-0.38391116557622723,83.52540213409779
4.84,-0.4978965691351781,81.81684981684981
4.85,-0.00961841566555379,80.01528905876732
4.86,1.1166334574715489,79.34511864946647
4.87,1.411143602813095,78.55136168179646
4.88,0.3895458344549285,78.09268991877687
4.89,-0.3244061910482862,77.05558209906036
4.9,-0.23697909940168538,76.32298136645963
4.91,-0.16814282609372952,75.77384933906673
4.92,-0.2157683394824977,75.5903806338589
4.93,-0.21684502780326867,75.22471731167383
4.94,-0.20324286535086236,75.62095875139353
4.95,-0.19531126138784974,74.46153846153847
4.96,-0.1843290405159861,74.0958751393534
4.97,-0.17320326120135296,72.69182990922121
4.98,-0.16021122213071687,72.11211976429368
4.99,-0.1415845141813795,71.41009714922758
5.0,-0.12238357246096428,71.47125338429686
5.01,-0.10117281254177662,70.28125497690715
5.02,-0.0740043772476564,70.46344959388438
5.03,-0.04087826657860361,69.36518553909858
5.04,-0.008075162405782101,68.60200668896321
5.05,0.02562518203434853,67.8082497212932
5.06,0.07170744216334506,67.38143016403886
5.07,0.1371700920662186,67.0157668418538
5.08,0.2108873524283361,66.89345437171524
5.09,0.28105154133190946,67.04634495938843
5.1,0.34209976911962214,67.74836757445453
5.11,0.3907660812184689,70.0060519190954
5.12,0.42159525680321036,78.21500238891544
5.13,0.41398665933642903,89.68944099378882
5.14,0.35096450296063625,101.40850453893933
5.15,0.23618952796645334,109.52699474438604
5.16,0.10329029957262616,114.56219143175664
5.17,-0.013745720895175752,114.50103519668737
5.18,-0.11290871523817994,114.8361204013378
5.19,-0.18752321586760656,114.56219143175664
5.2,-0.23252878767583213,116.05669692626215
5.21,-0.2563594891755624,116.14843127886606
5.22,-0.26612146328388564,116.39305621914318
5.23,-0.2641475346958056,116.45421245421245
5.24,-0.2586205346491814,115.782767956681
5.25,-0.24903800859431996,114.6832298136646
5.26,-0.23801989811176394,114.8361204013378
5.27,-0.2322416707902932,111.81525720656155
5.28,-0.2229462616209707,110.5946806816372
5.29,-0.21300483945918564,110.13728300684822
5.3,-0.20492967705340354,107.90890269151139
5.31,-0.2024891835263227,106.2615066093327
5.32,-0.2075137290232538,104.94919573180442
5.33,-0.2155888914290359,103.11705685618729
5.34,-0.21469165116172678,102.23283962414398
5.35,-0.19653150815139014,100.6147475712693
5.36,-0.16814282609372952,100.82879439401178
5.37,-0.14115383885307112,93.01608536391146
5.38,-0.11915350749865143,92.89377289377289
5.39,-0.10346974762608797,90.33030737378563
5.4,-0.09873231901469581,88.53002070393374
5.41,-0.10924797494755872,86.94378085682433
5.42,-0.15091581296139436,86.88262462175506
5.43,-0.21759870962780833,86.08886765408505
5.44,-0.2610610281762622,85.69262621436535
5.45,-0.27053588539904655,85.32568880394967
5.46,-0.2734429438651281,85.69262621436535
5.47,-0.27696012571297984,85.38684503901895
5.48,-0.27696012571297984,85.60089186176143
5.49,-0.27451963218589903,85.69262621436535
5.5,-0.270679443841816,85.72320433189998
5.51,-0.2696386451317374,85.2645325688804
5.52,-0.2682389503147352,86.0582895365504
5.53,-0.26856195681096645,85.6620480968307
5.54,-0.3131009636801913,86.02771141901577
5.55,-0.4588486727018851,84.22742474916387
5.56,-0.3636335355350411,83.34193342888994
5.57,0.5226245109022175,82.21309125656951
5.58,1.4121844015231737,81.60280299410734
5.59,0.9260596246950913,80.04586717630195
5.6,-0.11201147497087083,79.55789138397834
5.61,-0.33158411318675923,78.88644688644689
5.62,-0.187666774310376,78.09268991877687
5.63,-0.20568335887794317,77.75760471412646
5.64,-0.23299535261483287,77.66587036152254
5.65,-0.22276681356750888,76.87211339385253
5.66,-0.20966710566479568,76.47587195413283
5.67,-0.20051525493824265,75.77384933906673
5.68,-0.19150696265445905,75.22471731167383
5.69,-0.1747106248504323,74.4921165790731
5.7,-0.16035478057348632,74.03471890428412
5.71,-0.14650139084623348,73.72893772893772
5.72,-0.12679799457612514,73.63720337633382
5.73,-0.10253661774808649,72.66125179168658
5.74,-0.0721740071023458,72.50836120401338
5.75,-0.03617672757790381,71.53240961936613
5.76,0.0031941753516204754,71.3489409141583
5.77,0.049886558862387194,70.7080745341615
5.78,0.1049771112751673,70.9526994744386
5.79,0.169075955971731,69.18171683389075
5.8,0.24293677477661793,69.76142697881828
5.81,0.31173715847388145,69.03010033444816
5.82,0.36424365891681126,69.33460742156394
5.83,0.400707503380254,69.73084886128365
5.84,0.41413021777919845,73.08807134894091
5.85,0.3740056330251345,80.32107023411372
5.86,0.2726892620405884,81.11482720178373
5.87,0.14786519605254334,100.7676381589425
5.88,0.033269669111822255,109.648033126294
5.89,-0.062555591436792,113.15814620162446
5.9,-0.13519616347813854,114.74438604873387
5.91,-0.1811348651643656,115.41583054626533
5.92,-0.20460667055717224,115.99554069119287
5.93,-0.2157683394824977,115.84392419175028
5.94,-0.2201827615976586,116.45421245421245
5.95,-0.2217260148574303,116.08727504379678
5.96,-0.21820883300957852,116.45421245421245
5.97,-0.2127177225736467,116.1790093964007
5.98,-0.2062934822597134,116.1790093964007
5.99,-0.19836187829670074,114.65392578436057
6.0,-0.1931937743570002,114.92785475394172
6.01,-0.1882768976921462,113.03583373148591
6.02,-0.18630296910406616,111.75410097149228
6.03,-0.19010726783745682,109.22121356903966
6.04,-0.19301432630353837,107.35977066411849
6.05,-0.18235511192790602,105.46774964166268
6.06,-0.15687348833632694,105.74167861124383
6.07,-0.1275516764006648,103.84965758878802
6.08,-0.09826575407569507,99.12024207676382
6.09,-0.07493750712565789,96.80012740882306
6.1,-0.06635989017018268,94.26724000637044
6.11,-0.06973351357526499,91.61204013377926
6.12,-0.0956817021058448,89.53782449434624
6.13,-0.15533023507655525,87.09539735626691
6.14,-0.211174469313875,86.15002388915433
6.15,-0.23313891105760232,85.9053989488772
6.16,-0.23880946954699597,86.11944577161968
6.17,-0.24537726830369874,86.30291447682752
6.18,-0.2508683787396306,86.54626532887403
6.19,-0.2523757423887099,86.24175824175825
6.2,-0.2557493657937922,86.54626532887403
6.21,-0.25696961255733264,86.27233635929288
6.22,-0.25467267747302125,86.97435897435898
6.23,-0.25345243070948087,86.97435897435898
6.24,-0.2626042814360339,87.61522535435579
6.25,-0.37199581482636207,87.52349100175186
6.26,-0.47331218581090817,87.64580347189043
6.27,0.05415742253477862,87.43175664914796
6.28,1.1675967046547069,87.64580347189043
6.29,1.389609836397676,87.46233476668259
6.3,0.3735390680861338,87.73626373626374
6.31,-0.2853224050043009,84.04395604395604
6.32,-0.20202261858732196,82.91511387163561
6.33,-0.15091581296139436,82.21309125656951
6.34,-0.19516770294508026,82.06020066889631
6.35,-0.1944140211205406,80.93135849657588
6.36,-0.18386247557698535,80.4739608217869
6.37,-0.17973517034736336,79.80251632425545
6.38,-0.17137289105604234,78.52078356426182
6.39,-0.1606777870697176,77.086160216595
6.4,-0.1513823779003951,76.47587195413283
6.41,-0.14022070897506964,76.23124701385571
6.42,-0.12421394260627489,75.6821149864628
6.43,-0.1037568645116269,75.37760789934703
6.44,-0.07813168247727836,74.7978977544195
6.45,-0.04636937701453544,73.82067208154164
6.46,-0.008864733841014128,72.96575887880236
6.47,0.03448991587536266,71.86749482401656
6.48,0.08681696826483067,71.3489409141583
6.49,0.15504311819101632,70.25067685937252
6.5,0.23163154740852301,70.49402771141902
6.51,0.3022623012510971,69.76142697881828
6.52,0.36241328877150064,70.5551839464883
6.53,0.4087826657860361,71.01258162127728
6.54,0.4284501724454521,75.4387641344163
6.55,0.40573204887718506,83.67829272177099
6.56,0.32164269102497417,93.56521739130434
6.57,0.19455757956331007,104.39878961618092
6.58,0.0659292148418743,112.39496735148909
6.59,-0.04593870168622706,116.576524924351
6.6,-0.13060229330951584,118.68131868131869
6.61,-0.1873796574248371,119.19987259117694
6.62,-0.22445362527005003,119.19987259117694
6.63,-0.24293677477661793,119.1692944736423
6.64,-0.2508683787396306,119.53623188405797
6.65,-0.252088625503171,119.26102882624622
6.66,-0.24720763844900936,119.59738811912725
6.67,-0.2384864630507647,118.40738971173754
6.68,-0.2276478006216705,117.64421086160216
6.69,-0.21820883300957852,116.91161012900143
6.7,-0.20798029396225454,115.72161172161172
6.71,-0.19470113800607952,114.16467590380634
6.72,-0.18508272234052575,112.79120879120879
6.73,-0.18127842360713506,111.41901576684185
6.74,-0.17944805346182446,109.73976747889792
6.75,-0.17654099499574288,108.12294951425386
6.76,-0.16053422862694816,108.36630036630036
6.77,-0.13322223489005847,105.8028348463131
6.78,-0.10329029957262616,103.36168179646441
6.79,-0.07264057204134654,99.79168657429527
6.8,-0.05279361732846875,97.53272814142379
6.81,-0.049886558862387194,94.66475553432075
6.82,-0.056777364115321256,92.49753145405319
6.83,-0.08620684488306046,90.26915113871635
6.84,-0.14937255970162266,89.62828475871954
6.85,-0.20614992381694394,88.53002070393374
6.86,-0.22445362527005003,88.86637999681479
6.87,-0.22858093049967199,88.16435738174869
6.88,-0.23374903443937253,88.43828635132984
6.89,-0.23863002149353416,87.98088867654086
6.9,-0.24232665139484774,88.8052237617455
6.91,-0.2427573267231561,88.49944258639911
6.92,-0.24002971631053638,88.98741837872272
6.93,-0.2378763396689945,88.40770823379519
6.94,-0.23863002149353416,88.77464564421086
6.95,-0.2563594891755624,88.59117693900302
6.96,-0.3791737369648351,88.68291129160694
6.97,-0.4536446791514922,88.46886446886447
6.98,0.16419496891756938,86.97435897435898
6.99,1.28631953682505,85.96655518394648
7.0,1.3626208491570178,85.60089186176143
7.01,0.2824512361489117,84.59308807134894
7.02,-0.2939000219597761,83.98279980888677
7.03,-0.17822780669828406,82.54945054945055
7.04,-0.15077225451862492,81.8780060519191
7.05,-0.19714163153316033,80.7784679089027
7.06,-0.19240420292176819,80.25991399904443
7.07,-0.1817449885461358,79.5273132664437
7.08,-0.17424405991143155,79.43557891383978
7.09,-0.1606777870697176,78.55136168179646
7.1,-0.14632194279277166,78.30673674151934
7.11,-0.13322223489005847,77.75760471412646
7.12,-0.11764614384957212,77.17789456919891
7.13,-0.09765563069392487,76.17009077878643
7.14,-0.07569118895019755,75.1941391941392
7.15,-0.050066006915849025,73.79009396400701
7.16,-0.015253084544255079,72.93518076126772
7.17,0.028532240500430087,72.17327599936296
7.18,0.0779881240345089,71.71460423634336
7.19,0.135339721920908,71.3489409141583
7.2,0.20981066410756516,71.31836279662366
7.21,0.29494082066985466,71.31836279662366
7.22,0.3703448927345133,71.68402611880873
7.23,0.43243391923230456,72.50836120401338
7.24,0.4780496144223003,77.69644847905718
7.25,0.49836313407417887,77.78818283166109
7.26,0.4725585039863685,78.00222965440356
7.27,0.3855979772787684,97.77735308170091
7.28,0.2548162359157907,107.17630195891066
7.29,0.11717957891057136,114.59276954929129
7.3,0.002153376641541893,119.44449753145405
7.31,-0.07888536430181803,119.29160694378086
7.32,-0.1290949296604365,119.65854435419652
7.33,-0.1570170467790964,120.39114508679727
7.34,-0.17302381314789114,120.36056696926262
7.35,-0.18127842360713506,119.71970058926581
7.36,-0.1827857872562144,119.90189520624303
7.37,-0.1786943716372848,118.52842809364549
7.38,-0.16997319623904011,118.80363115145724
7.39,-0.15974465719171613,118.22392100652971
7.4,-0.15030568957962415,117.79710144927536
7.41,-0.13900046221152923,116.3318999840739
7.42,-0.12773112445412665,115.3852524287307
7.43,-0.11872283217034306,113.40149705367097
7.44,-0.11628233864326225,112.54785793916228
7.45,-0.12101976725465441,111.11323459149546
7.46,-0.12557774781258474,109.52699474438604
7.47,-0.1232808127282734,107.48208313425705
7.48,-0.10605379959593825,106.62716993151776
7.49,-0.07827524092004783,103.57572861920688
7.5,-0.04791263027430713,101.50023889154323
7.51,-0.019057383277645758,98.47937569676701
7.52,-0.0015432532597716903,95.8853320592451
7.53,0.0030506169088510156,93.47475712693104
7.54,-0.0006101233817702031,92.19302436693741
7.55,-0.031439298966511646,90.72782290173595
7.56,-0.09385133196053419,90.26915113871635
7.57,-0.1374930985624499,89.93406593406593
7.58,-0.1467885077317724,90.11753463927377
7.59,-0.14998268308339288,89.84233158146202
7.6,-0.15382287142747592,89.84233158146202
7.61,-0.1570170467790964,89.01799649625737
7.62,-0.15809373509986735,89.29319955406912
7.63,-0.1512029298469333,89.048574613792
7.64,-0.14205107912038023,89.29319955406912
7.65,-0.138390338829759,88.9581143494187
7.66,-0.1397541440360689,89.62828475871954
7.67,-0.17227013132335148,89.01799649625737
7.68,-0.3134239701764226,88.86637999681479
7.69,-0.3022623012510971,87.82799808886766
7.7,0.49531251716532787,86.85204650422041
7.71,1.5521179936127043,86.51568721133938
7.72,1.311191037034859,85.69262621436535
7.73,0.19868488479293203,84.19684663162924
7.74,-0.18310879375244568,83.21962095875139
7.75,-0.03585372108167253,81.75569358178053
7.76,-0.03538715614267178,80.83962414397197
7.77,-0.06668289666641397,79.9859850294633
7.78,-0.05110680562592761,80.35164835164835
7.79,-0.038437773051522794,79.6802038541169
7.8,-0.03082917558474144,79.5273132664437
7.81,-0.014786519605254334,79.19222806179327
7.82,0.0031941753516204754,78.85586876891225
7.83,0.017083454689565687,78.18442427138079
7.84,0.03463347431813212,77.26962892180283
7.85,0.05509055241278011,76.17009077878643
7.86,0.07902892274458749,75.28587354674312
7.87,0.10741760480224812,73.82067208154164
7.88,0.14449157264746104,73.66778149386845
7.89,0.18967659250914845,72.50836120401338
7.9,0.23651253446268464,72.14269788182831
7.91,0.2939000219597761,71.37951903169295
7.92,0.3688016394747416,71.71460423634336
7.93,0.44923025703633135,71.04315973881191
7.94,0.5285821862771501,71.80633858894728
7.95,0.5982798102417227,73.30211817168339
7.96,0.6434648301034102,79.74136008918617
7.97,0.6566004276168157,89.01799649625737
7.98,0.6196700182143722,99.2718585762064
7.99,0.5244548810475281,108.61092530657749
8.0,0.39277589941724134,115.87450230928492
8.01,0.26185059961149426,118.3768115942029
8.02,0.1551866766337858,118.83420926899188
8.03,0.08042861756158971,118.89536550406116
8.04,0.035566604196133604,119.1692944736423
8.05,0.012669032574404807,118.7730530339226
8.06,-0.0031941753516204754,118.74247491638796
8.07,-0.012956149459943726,118.7730530339226
8.08,-0.015109526101485618,118.71189679885332
8.09,-0.012669032574404807,118.49912406434146
8.1,-0.007321480581242438,118.80363115145724
8.11,0.0006101233817702031,118.13218665392579
8.12,0.012346026078173523,117.6747889791368
8.13,0.022718123568266975,116.20958751393535
8.14,0.03068561714197198,115.56872113393852
8.15,0.0343463574325932,114.59276954929129
8.16,0.03294666261559097,112.15034241121198
8.17,0.026701870355119478,110.5946806816372
8.18,0.018913824834876296,109.00716674629719
8.19,0.023507695003499002,107.02341137123746
8.2,0.04012458475406395,105.37601528905877
8.21,0.062555591436792,101.98821468386686
8.22,0.09887587745746527,99.4247491638796
8.23,0.12862836472143577,96.73897117375378
8.24,0.13824678038698957,94.90810638636725
8.25,0.14266120250215045,92.31406274884536
8.26,0.1374930985624499,91.36868928173276
8.27,0.08972402673091223,90.6055104315974
8.28,0.0228975716217288,90.9405956362478
8.29,-0.007465039024011897,90.63608854913203
8.3,-0.008398168902013385,91.06290810638637
8.31,-0.012058909192634602,90.57493231406275
8.32,-0.015109526101485618,90.57493231406275
8.33,-0.013566272841713928,90.299729256251
8.34,-0.016329772865026026,90.42204172638955
8.35,-0.017837136514105352,89.9034878165313
8.36,-0.011915350749865144,90.08695652173913
8.37,-0.008541727344782844,89.87290969899665
8.38,-0.007177922138472978,89.32377767160376
8.39,-0.05964853297071045,88.13377926421404
8.4,-0.21103091087110556,88.40770823379519
8.41,-0.041344831517604354,86.97435897435898
8.42,0.9419228326211165,87.1565535913362
8.43,1.7497261900848655,85.8136645962733
8.44,1.1055076781569158,84.472049689441
8.45,0.09751207225115541,83.00684822423953
8.46,-0.0349564808143634,83.21962095875139
8.47,0.1043669878933971,82.18251313903488
8.48,0.07292768892688546,82.39655996177736
8.49,0.04683594195353618,81.26771778945692
8.5,0.0619454680550218,81.175983436853
8.51,0.07888536430181803,80.10702341137124
8.52,0.08972402673091223,79.9859850294633
8.53,0.10023968266377514,78.88644688644689
8.54,0.11201147497087083,78.18442427138079
8.55,0.12529063092704584,77.02500398152571
8.56,0.1405437154713009,76.90269151138716
8.57,0.15382287142747592,76.11020863194776
8.58,0.17058331962081033,75.13298295906992
8.59,0.1994385666174717,74.12645325688804
8.6,0.22843737205690254,74.03471890428412
8.61,0.26457821002411397,73.39385252428731
8.62,0.3160080221462729,73.66778149386845
8.63,0.37429274991067346,72.66125179168658
8.64,0.4453900686922483,72.11211976429368
8.65,0.5256751278110685,71.5018315018315
8.66,0.5937218296837924,72.0509635292244
8.67,0.6421010248971003,72.93518076126772
8.68,0.6749041290699218,73.30211817168339
8.69,0.6768780576580018,72.99633699633699
8.7,0.6164399532520594,78.30673674151934
8.71,0.49592264054709806,87.03551520942825
8.72,0.35857310042741763,97.07533046663481
8.73,0.23679965134822353,105.89456919891703
8.74,0.1387133453259903,112.6395922917662
8.75,0.06391939664310187,114.98901098901099
8.76,0.015719649483255823,116.05669692626215
8.77,-0.01327915595617501,116.576524924351
8.78,-0.032336539233820766,116.85045389393215
8.79,-0.03829421460875334,117.36900780379041
8.8,-0.03082917558474144,117.73594521420608
8.81,-0.018160143010336634,116.91161012900143
8.82,-0.00976197410832325,117.27727345118649
8.83,-0.0041273052296219625,115.87450230928492
8.84,0.0031941753516204754,115.72161172161172
8.85,0.010084980604554534,114.22583213887562
8.86,0.013745720895175752,114.43987896161809
8.87,0.01600676636879474,111.4495938843765
8.88,0.016473331307795484,109.83150183150182
8.89,0.023507695003499002,107.87832457397674
8.9,0.045615695189995774,106.9023729893295
8.91,0.07615775388919829,105.1619684663163
8.92,0.10346974762608797,103.54515050167224
8.93,0.12008663737665293,101.04284121675425
8.94,0.13031517642397691,98.96735148909062
8.95,0.13322223489005847,95.8853320592451
8.96,0.10849429312301906,94.14492753623189
8.97,0.04654882506799726,92.58926580665711
8.98,-0.014786519605254334,92.13186813186813
8.99,-0.04105771463206544,91.00175187131708
9.0,-0.04683594195353618,90.6055104315974
9.01,-0.05265005888569929,89.41551202420767
9.02,-0.06011509790971119,89.62828475871954
9.03,-0.06424240313933316,89.3543557891384
9.04,-0.0653190914601041,90.08695652173913
9.05,-0.06165835116948288,89.81175346392737
9.06,-0.05964853297071045,90.0563784042045
9.07,-0.05828472776440058,90.1481127568084
9.08,-0.05537766929831903,90.4526198439242
9.09,-0.14129739729584057,90.20926899187769
9.1,-0.2665880282228864,90.9405956362478
9.11,0.16480509229933957,90.4526198439242
9.12,1.2657189002876326,90.88071348940915
9.13,1.6395450852593052,88.16435738174869
9.14,0.6976222526381888,87.21770982640548
9.15,-0.04776907183153767,86.54626532887403
9.16,-0.004593870168622706,86.88262462175506
9.17,0.06851326681172458,84.50135371874502
9.18,0.02899880543943083,84.80713489409142
9.19,0.026091746973349275,84.1662685140946
9.2,0.03678685095967401,84.1662685140946
9.21,0.0396580198150632,83.46424589902851
9.22,0.04636937701453544,83.21962095875139
9.23,0.057208039443629635,82.54945054945055
9.24,0.06804670187272382,82.42713807931199
9.25,0.08164886432513012,81.75569358178053
9.26,0.09521513716684406,81.99904443382704
9.27,0.11000165677209839,80.19875776397515
9.28,0.13200198812651806,79.3744226787705
9.29,0.1591345338099459,78.85586876891225
9.3,0.19132751460099723,79.131071826724
9.31,0.2322416707902932,78.45962732919254
9.32,0.28184111276714147,78.79471253384297
9.33,0.34791388605178525,77.72702659659181
9.34,0.42511243865106213,77.63529224398789
9.35,0.49348214702001725,76.96384774645644
9.36,0.5482496929365661,76.87211339385253
9.37,0.5893074075686315,76.9332696289218
9.38,0.6082212324035078,78.36789297658864
9.39,0.5841034140182386,78.24558050645007
9.4,0.495133069111866,83.98279980888677
9.41,0.362843964099809,92.65042204172639
9.42,0.23299535261483287,103.45341614906832
9.43,0.1263314296371244,111.1438127090301
9.44,0.04791263027430713,116.24016563146998
9.45,-0.004737428611392165,117.64421086160216
9.46,-0.03617672757790381,118.07103041885651
9.47,-0.05232705238946801,118.07103041885651
9.48,-0.06269914987956146,118.34623347666826
9.49,-0.07325069542311674,118.13218665392579
9.5,-0.07554763050742809,118.19334288899506
9.51,-0.06775958498718491,117.79710144927536
9.52,-0.05828472776440058,117.58305462653288
9.53,-0.04974300041961774,116.54594680681637
9.54,-0.03876077954775408,114.92785475394172
9.55,-0.027168435294120222,113.40149705367097
9.56,-0.0195239482166465,113.58496575887881
9.57,-0.01679633780402677,111.4495938843765
9.58,-0.011915350749865144,110.50294632903328
9.59,-0.0018303701453106095,108.27456601369644
9.6,0.015719649483255823,106.47427934384456
9.61,0.04059114969306469,104.36948558687689
9.62,0.0637758382003324,102.17168338907469
9.63,0.07371726036211748,99.51648351648352
9.64,0.08071573444712864,96.9835961140309
9.65,0.07522462401119681,94.66475553432075
9.66,0.03617672757790381,94.81637203376334
9.67,-0.0349564808143634,92.65042204172639
9.68,-0.08897034490637257,92.46695333651856
9.69,-0.10163937748077737,91.88724319159101
9.7,-0.10422342945062764,92.07071189679885
9.71,-0.10756116324501758,91.46042363433668
9.72,-0.11445196849795164,92.07071189679885
9.73,-0.12712100107235644,91.76493072145246
9.74,-0.1335093517755974,92.04013377926421
9.75,-0.13106885824851658,91.82608695652173
9.76,-0.12801824133966555,92.00955566172958
9.77,-0.13336579333282794,91.82608695652173
9.78,-0.1709063261170416,91.70377448638318
9.79,-0.31080402859587997,91.76493072145246
9.8,-0.3022623012510971,92.04013377926421
9.81,0.48049010794938113,91.88724319159101
9.82,1.5187047660581128,92.19302436693741
9.83,1.290446842054672,89.41551202420767
9.84,0.20431955367163332,88.9581143494187
9.85,-0.18752321586760656,87.79741997133301
9.86,-0.06165835116948288,87.98088867654086
9.87,-0.07020007851426573,85.38684503901895
9.88,-0.10788416974124886,84.83771301162605
9.89,-0.09428200728884256,83.7700270743749
9.9,-0.08010561106535843,82.79280140149706
9.91,-0.07615775388919829,82.02962255136168
9.92,-0.06973351357526499,81.8780060519191
9.93,-0.058141169321631124,80.83962414397197
9.94,-0.041811396456605095,80.7784679089027
9.95,-0.02318468850726772,79.77193820672082
9.96,-0.006854915642241694,79.92482879439402
9.97,0.011915350749865144,78.55136168179646
9.98,0.03983746786852503,77.97165153686893
9.99,0.07615775388919829,76.62876254180603
