time_s,ECG1,ECG2,NIBP
0.0,-0.10198300909824282,-0.08185970906524212,88.68134816321378
0.01,-0.07935424904732749,-0.05811907524454952,89.49979317534222
0.02,-0.09676098754803159,-0.07605966526673866,90.1957288082967
0.03,-0.08631694444760912,-0.06100591522607738,90.7454767787075
0.04,-0.10720503064845405,-0.08648656218632102,91.11609338797321
0.05,-0.07529267673049654,-0.06506594588502981,91.36214163690238
0.06,-0.10256323371493295,-0.076639669646589,91.48568050665762
0.07,-0.0509232428295108,-0.044792156425715414,91.50832929944607
0.08,-0.06542885824676421,-0.05117220460406923,91.30654914551252
0.09,-0.030615381245356024,-0.017584678243644604,90.90195934706414
0.1,-0.06426840901338395,-0.01816468262349495,90.35221137665334
0.11,0.020410254163570684,0.01426283497722898,89.81378780263677
0.12,-0.052083692062891075,-0.0233715401244242,89.3093374178029
0.13,-0.07993447366401762,-0.01642466948394391,88.81518193878196
0.14,-0.08979829214774995,-0.059279084004250214,88.25410957197694
0.15,-0.10720503064845405,-0.0662259546447305,87.62612031738783
0.16,-0.12461176914915814,-0.09748028156802986,86.91886028803911
0.17,-0.10082255986486253,-0.07895968716599039,86.31351982623846
0.18,-0.10720503064845405,-0.1003803034672816,85.89863512197714
0.19,-0.09211919061451049,-0.08300653590721895,85.65155738246666
0.2,-0.10778525526514418,-0.13512783858740693,85.47139653074028
0.21,-0.1350558122495806,-0.10906718724731293,85.21402388541688
0.22,-0.03409672894549685,0.08721156766113396,84.90002925812232
0.23,1.1840336575057369,0.3906065859937608,84.59632953664071
0.24,1.2559473791155085,0.3332916077303674,84.3389568913173
0.25,0.48039185175962773,-0.159435294870226,84.15879603959091
0.26,-0.21683335234308454,-0.2798652951955162,84.10320354820107
0.27,-0.433769097265585,-0.2433909288535637,84.06923035901836
0.28,-0.31717808017067284,-0.17912907994969005,84.01363786762852
0.29,-0.1651933614576624,-0.10558716096821084,83.91274779066174
0.3,-0.10836547988183431,-0.09806028594788022,83.75523573172381
0.31,-0.10546435679838363,-0.08590655780647068,83.58639927639166
0.32,-0.09502031369796117,-0.09169341968725027,83.40726791524656
0.33,-0.07761357519725708,-0.06795278586655767,83.25078534688994
0.34,-0.08341582136415844,-0.07721967402643934,83.1272464771347
0.35,-0.06426840901338395,-0.0528990358258964,83.02635640016793
0.36,-0.07007065518028531,-0.0662259546447305,82.92443683261986
0.37,-0.0619475105466234,-0.053479040205746745,82.7906030570517
0.38,-0.05382436591296148,-0.050012195844368536,82.63309099811377
0.39,-0.05150346744620094,-0.04074530768448686,82.43131084418022
0.4,-0.040479199729088346,-0.03611845456340795,82.22953069024666
0.41,-0.024847265938259963,-0.011797816362865008,82.09466742409721
0.42,-0.02368681670487969,-0.03437844142385692,82.13996500967413
0.43,0.005324414129627135,0.004415942437496958,82.65573979090223
0.44,0.021570703396950955,0.0003690936962684025,84.1145279445953
0.45,0.04710058653131696,0.026996567498488867,87.19991121673227
0.46,0.07727226659920405,0.039730300019748754,91.72143384977386
0.47,0.10915048965735627,0.06869097325909447,96.98418970134684
0.48,0.13061880047489133,0.0663709557396931,101.96589462422668
0.49,0.17703676981010225,0.10284532208164557,106.12812504439678
0.5,0.19966552986101754,0.09415843830161424,108.88818929284498
0.51,0.21997339144517233,0.1254259471426375,109.92076834588248
0.52,0.18399946521038388,0.08258471454005505,109.46058605604424
0.53,0.13061880047489133,0.0663709557396931,107.77736895562916
0.54,0.050001709614767645,0.01252282183767794,105.24173365390297
0.55,-0.016724121304598053,-0.0036909369626840246,102.91920290250457
0.56,-0.06368818439669381,-0.03726528140538478,100.97861315676609
0.57,-0.09734121216472172,-0.04190531644418755,99.31804484913948
0.58,-0.11648862451549623,-0.06100591522607738,97.79131031708104
0.59,-0.136796486099651,-0.058699079624399866,96.26560527560389
0.6,-0.1513021015169044,-0.08069970030554142,94.78416832912238
0.61,-0.16287246299090186,-0.07143281214565975,93.42729974297738
0.62,-0.15188232613359456,-0.07953969154584073,92.3278038021558
0.63,-0.1541690937405498,-0.06853279024640802,91.49700490305185
0.64,-0.14549985535000304,-0.07375282966506114,90.93593253624682
0.65,-0.1449196307333129,-0.06390593712532912,90.4870746428028
0.66,-0.13737671071634114,-0.06969279900610871,90.11748752411839
0.67,-0.15014165228352414,-0.06737278148670732,89.6799540270686
0.68,-0.15072187690021427,-0.08069970030554142,89.25271543583175
0.69,-0.1431789568832425,-0.056379062104998476,88.81518193878196
0.7,-0.14549985535000304,-0.0720128165255101,88.40029723452064
0.71,-0.16113178914083143,-0.07259282090536044,87.95143934107661
0.72,-0.1524625507502847,-0.06969279900610871,87.7609835835373
0.73,-0.1559097675906202,-0.06448594150517946,87.66009350657052
0.74,-0.16113178914083143,-0.07953969154584073,87.47993265484413
0.75,-0.15823066605738076,-0.06158591960592773,87.3234500864875
0.76,-0.1513021015169044,-0.06737278148670732,87.39036697427159
0.77,-0.15765044144069063,-0.06448594150517946,87.73833479074884
0.78,-0.1559097675906202,-0.07953969154584073,88.33338034673655
0.79,-0.15474931835723993,-0.062165923985778075,89.1631497552592
0.8,-0.1460800799666932,-0.06911279462625836,90.15043122271979
0.81,-0.16113178914083143,-0.0754796608868883,91.04814700960783
0.82,-0.14840097843345373,-0.0720128165255101,91.74408264256232
0.83,-0.14840097843345373,-0.06448594150517946,92.21558932879479
0.84,-0.14375918149993264,-0.07375282966506114,92.61914963666189
0.85,-0.14027783379979183,-0.05059220022421888,92.92181986756222
0.86,-0.14724052920007347,-0.0777996784062897,92.94446866035068
0.87,-0.13447558763289047,-0.059279084004250214,92.63047403305612
0.88,-0.13911738456641154,-0.06390593712532912,92.13631855403519
0.89,-0.098501661398102,-0.037845285785235126,91.68746066059116
0.9,-0.09327963984789077,-0.03900529454493582,91.2283078613342
0.91,-0.08689716906429927,-0.007737785703912581,90.67753040034212
0.92,-0.042219873579158754,0.0015159205382452245,90.12778242993133
0.93,-0.05614526437972203,0.0020959249180955712,89.63465644149169
0.94,-0.09676098754803159,-0.012377820742715354,89.0849084710809
0.95,-0.098501661398102,-0.01990469576304599,88.46721412230471
0.96,-0.09908188601479213,-0.059845906466376685,87.88452245329253
0.97,-0.14375918149993264,-0.08358654028706929,87.44698895624273
0.98,-0.1286733414659891,-0.08358654028706929,87.08769674337127
0.99,-0.12287109529908773,-0.07721967402643934,86.6944313413171
1.0,-0.11068637834859486,-0.08185970906524212,86.26822224066154
1.01,-0.10952592911521458,-0.08764657094602171,85.954227613367
1.02,-0.13273491378282004,-0.1524884242297457,85.76377185582767
1.03,-0.14666030458338333,-0.0036909369626840246,85.58361100410129
1.04,0.32089834388945077,0.22501533554648678,85.39315524656196
1.05,1.4827469425217412,0.47282220683754744,85.24799707459957
1.06,0.9090754509142227,0.1352728396823695,85.16872629983996
1.07,0.08655586046624625,-0.2648115451548549,85.05651182647895
1.08,-0.3398068402215882,-0.26192470517332705,84.83208287975694
1.09,-0.3873852587901794,-0.20401654061235946,84.64162712221763
1.1,-0.227277395443507,-0.13859468294878513,84.60765393303494
1.11,-0.08631694444760912,-0.08474654904676998,84.58500514024648
1.12,-0.06484863363007408,-0.08185970906524212,84.47279066688547
1.13,-0.054404590529651624,-0.06564595026488015,84.32763249492307
1.14,-0.042800098195848894,-0.06100591522607738,84.18144483237937
1.15,-0.03641762741225739,-0.07027280338595905,84.02496226402275
1.16,-0.03699785202894753,-0.037845285785235126,83.86745020508482
1.17,-0.026007715171640234,-0.059845906466376685,83.74391133532959
1.18,-0.02310659208818955,-0.027431570783376626,83.66567005115127
1.19,-0.019625244388048736,-0.05579905772514813,83.58639927639166
1.2,-0.008600976670936141,-0.022791535744573852,83.49683359581911
1.21,-0.001638281270654503,-0.038425290165085474,83.34035102746249
1.22,0.008225537213077817,-0.008897794463613273,83.13857087352893
1.23,0.023311377247021366,-0.01468465634439287,82.98105881459101
1.24,0.04187856498110573,0.010782808698126901,83.00370760737947
1.25,0.05580395578166901,0.0020959249180955712,83.60904806918012
1.26,0.07205024504899284,0.026996567498488867,85.57331609828834
1.27,0.10218779425707462,0.033943438138969155,89.4215518911639
1.28,0.13293969894165186,0.07157781324062233,94.33531043567835
1.29,0.16485205285960935,0.06869097325909447,99.68763196782389
1.3,0.20952934834474987,0.106905352740598,104.38931545259186
1.31,0.2477900421864936,0.10516533960104696,107.96782471316848
1.32,0.27448037455423985,0.1294859778015899,110.01033402645503
1.33,0.2779617222543807,0.11095220148182655,110.5147844112889
1.34,0.23792622370276126,0.10052530456224419,109.78590507973301
1.35,0.18341924059369374,0.05536405444026037,107.81134214481185
1.36,0.10450869272383517,0.029316585017890254,105.21908486111451
1.37,0.052322608081528194,-0.012957825122565702,102.96450048808148
1.38,0.004744189512936999,-0.015844665104093564,101.14642012151695
1.39,-0.026007715171640234,-0.04595216518541611,99.59806628725134
1.4,-0.05034301821282067,-0.041325312064337205,98.08368564216843
1.41,-0.054404590529651624,-0.05695906648484882,96.56827550650422
1.42,-0.07297177826373599,-0.050012195844368536,95.09919244699822
1.43,-0.07587290134718667,-0.0662259546447305,93.79688686166179
1.44,-0.07935424904732749,-0.04943219146451819,92.7313641100229
1.45,-0.07065087979697544,-0.06390593712532912,91.890270305106
1.46,-0.08631694444760912,-0.059845906466376685,91.30654914551252
1.47,-0.07355200288042613,-0.06390593712532912,90.8916644412512
1.48,-0.08051469828070776,-0.05175220898391957,90.62193790895226
1.49,-0.07239155364704586,-0.06100591522607738,90.40883335862449
1.5,-0.08805761829767954,-0.05231903144604605,90.20705320469094
1.51,-0.08167514751408804,-0.06158591960592773,89.74687091485269
1.52,-0.0892180675310598,-0.047692178324967145,89.0509352818982
1.53,-0.09269941523120064,-0.06506594588502981,88.34470474313078
1.54,-0.09618076293134145,-0.05463904896544744,87.77230797993153
1.55,-0.08863784291436967,-0.06390593712532912,87.36771818148313
1.56,-0.09676098754803159,-0.05117220460406923,87.19991121673227
1.57,-0.09211919061451049,-0.06680595902458085,87.27815250091058
1.58,-0.10546435679838363,-0.05753907086469917,87.73833479074884
1.59,-0.08979829214774995,-0.059845906466376685,88.45691921649178
1.6,-0.10836547988183431,-0.05463904896544744,89.35360551279852
1.61,-0.10430390756500336,-0.07259282090536044,90.23999690329234
1.62,-0.10604458141507377,-0.05231903144604605,91.0038789146122
1.63,-0.10894570449852445,-0.07143281214565975,91.62054377280708
1.64,-0.11822929836556663,-0.059845906466376685,92.12499415764096
1.65,-0.10198300909824282,-0.06448594150517946,92.48428637051242
1.66,-0.11648862451549623,-0.05405904458559709,92.72003971362867
1.67,-0.10952592911521458,-0.06911279462625836,92.79828099780698
1.68,-0.11938974759894691,-0.06100591522607738,92.72003971362867
1.69,-0.1066248060317639,-0.06448594150517946,92.54090835248357
1.7,-0.10952592911521458,-0.0528990358258964,92.22691372518902
1.71,-0.08979829214774995,-0.062165923985778075,91.79967513395216
1.72,-0.11938974759894691,-0.05117220460406923,91.35081724050815
1.73,-0.05962661207986285,-0.038425290165085474,90.82371806288582
1.74,-0.07645312596387681,-0.0233715401244242,90.18440441190248
1.75,-0.04860234436275026,-0.012377820742715354,89.5677395537076
1.76,-0.052083692062891075,0.007895968716599039,88.97269399771989
1.77,-0.016724121304598053,0.011362813077977247,88.41162163091487
1.78,-0.08399604598084859,0.0032559336777962648,87.91746615189392
1.79,-0.0810949228973979,-0.0054309501022350645,87.5025814476326
1.8,-0.09676098754803159,-0.03668527702553443,87.1319648383669
1.81,-0.12113042144901731,-0.0731728252852108,86.82929460746657
1.82,-0.12461176914915814,-0.06853279024640802,86.60486566074455
1.83,-0.10314345833162308,-0.08069970030554142,86.38043671402255
1.84,-0.10314345833162308,-0.06969279900610871,86.16733216369477
1.85,-0.08341582136415844,-0.07837968278614003,85.87598632918868
1.86,-0.11068637834859486,-0.12180091976857281,85.52801851271143
1.87,-0.14027783379979183,-0.030898415144754835,85.23667267820534
1.88,0.2385064483194514,0.21748846052615617,85.02356812787755
1.89,1.5430903026575153,0.47166219807784676,84.87738046533386
1.9,0.9844705202241351,0.19258781794576285,84.78781478476132
1.91,0.17761699442679238,-0.25091780387389434,84.78781478476132
1.92,-0.30151201552003914,-0.24513094199311472,84.83208287975694
1.93,-0.377521440306447,-0.20633655813176086,84.79913918115555
1.94,-0.23424009084378863,-0.12932779478890344,84.61897832942917
1.95,-0.08515649521422886,-0.08706656656617137,84.3389568913173
1.96,-0.06949043056359518,-0.06680595902458085,84.01363786762852
1.97,-0.04570122127929958,-0.06390593712532912,83.74391133532959
1.98,-0.05324414129627135,-0.05405904458559709,83.62037246557435
1.99,-0.02368681670487969,-0.0424853208240379,83.57610437057872
2.0,-0.035257178178877115,-0.04074530768448686,83.55345557779026
2.01,-0.021365918238119144,-0.04537216080556576,83.55345557779026
2.02,-0.026007715171640234,-0.04074530768448686,83.55345557779026
2.03,-0.008020752054246004,-0.03437844142385692,83.44124110442927
2.04,-0.013242773604457234,-0.0233715401244242,83.18283896852456
2.05,0.013447558763289045,-0.02048470014289634,82.84619554844154
2.06,0.016928906463429864,-0.006577776944211887,82.50955212835854
2.07,0.03433564496413396,-0.006010954482085411,82.3530695600019
2.08,0.045359912681246554,0.015422843736929674,82.50955212835854
2.09,0.07088979581561256,0.025256554358937828,83.28372904549134
2.1,0.08539541123286597,0.04495033943840187,85.2582919804125
2.11,0.11379228659087735,0.04957719255948077,88.83783073157042
2.12,0.14106284357531376,0.07794467950125228,93.5055410271557
2.13,0.18574013906045428,0.09299842954191355,98.622109216185
2.14,0.2147513698949611,0.11557905460290546,103.19922434061642
2.15,0.2721594760874793,0.1329528221629681,106.85700437595267
2.16,0.2860848668880426,0.14626655906407834,109.0786450503843
2.17,0.3040718300054368,0.1398996928034484,109.8198782689157
2.18,0.25243183912001466,0.1184790765021572,109.25880590211068
2.19,0.2193931668284822,0.09415843830161424,107.56426440530139
2.2,0.1253967789246801,0.04379033067870118,105.23040925750874
2.21,0.07553159274913365,0.007315964336748692,103.05406616865403
2.22,0.01576845723004959,-0.008897794463613273,101.29260778406065
2.23,-0.008020752054246004,-0.022211531364723505,99.69895636421812
2.24,-0.040479199729088346,-0.03147841952460518,98.03838805659151
2.25,-0.035257178178877115,-0.04074530768448686,96.44473663674898
2.26,-0.049762793596130526,-0.03437844142385692,95.01992167223861
2.27,-0.05324414129627135,-0.04537216080556576,93.7299699738777
2.28,-0.061367285929933256,-0.041325312064337205,92.63047403305612
2.29,-0.05498481514634176,-0.04364532958373859,91.75540703895655
2.3,-0.07297177826373599,-0.04595216518541611,91.08212019879052
2.31,-0.0619475105466234,-0.04595216518541611,90.58796471976957
2.32,-0.07181132903035571,-0.04364532958373859,90.33059207444617
2.33,-0.05788593822979244,-0.04653216956526646,90.09483873132993
2.34,-0.07123110441366558,-0.03668527702553443,89.79113900984831
2.35,-0.06600908286345435,-0.04885218708466784,89.24139103943752
2.36,-0.07239155364704586,-0.03611845456340795,88.56913368985279
2.37,-0.0665893074801445,-0.04827218270481749,87.74965918714307
2.38,-0.0683299813302149,-0.03147841952460518,87.04239915779435
2.39,-0.06078706131324312,-0.04306532520388825,86.67281203910994
2.4,-0.07819379981394722,-0.04653216956526646,86.61619005713878
2.41,-0.07123110441366558,-0.04827218270481749,86.82929460746657
2.42,-0.08573671983091899,-0.05175220898391957,87.2112356131265
2.43,-0.06774975671352476,-0.04595216518541611,87.67141790296475
2.44,-0.07645312596387681,-0.03900529454493582,88.3889728381264
2.45,-0.07529267673049654,-0.04885218708466784,89.33198621059135
2.46,-0.07239155364704586,-0.03900529454493582,90.27397009247503
2.47,-0.06310795978000366,-0.04595216518541611,90.98123012182374
2.48,-0.06484863363007408,-0.03668527702553443,91.53097809223453
2.49,-0.06020683669655299,-0.044225333963588936,92.04675287346264
2.5,-0.06426840901338395,-0.03321843266415622,92.45031318132973
2.51,-0.05962661207986285,-0.03958529892478616,92.60782524026766
2.52,-0.06078706131324312,-0.03379843704400657,92.56252765469074
2.53,-0.06078706131324312,-0.041325312064337205,92.41736948272835
2.54,-0.059046387463172714,-0.035538450183557606,92.12499415764096
2.55,-0.04860234436275026,-0.05059220022421888,91.63186816920131
2.56,-0.052083692062891075,-0.027431570783376626,91.11609338797321
2.57,-0.04105942434577848,-0.03379843704400657,90.61061351255803
2.58,-0.0317758304787363,-0.010057803223313967,90.01556795657032
2.59,-0.0033789551207249126,-0.006010954482085411,89.2753642286202
2.6,-0.013822998221147369,0.026996567498488867,88.59075299205995
2.61,0.03549609419751423,0.021789709997559616,88.10895140001453
2.62,-0.021365918238119144,0.02815657625818956,87.67141790296475
2.63,-0.047441895129369985,0.0038359380576466116,87.18858682033805
2.64,-0.0445407720459193,-0.01121781198301466,86.73972892689402
2.65,-0.06949043056359518,-0.044225333963588936,86.4370586959937
2.66,-0.07123110441366558,-0.04537216080556576,86.18998095648323
2.67,-0.05556503976303189,-0.053479040205746745,85.8873107255829
2.68,-0.06020683669655299,-0.05579905772514813,85.60625979688974
2.69,-0.04570122127929958,-0.06158591960592773,85.42712843574465
2.7,-0.0619475105466234,-0.094593441586502,85.28094077320097
2.71,-0.10430390756500336,-0.0424853208240379,85.04518743008472
2.72,0.16659272670967978,0.20359471924519557,84.76516599197285
2.73,1.5105977241228676,0.4571884524170358,84.58500514024648
2.74,1.1521213035877793,0.2846503313292815,84.4841150632797
2.75,0.34236665470698585,-0.2011297006308316,84.32763249492307
2.76,-0.21857402619315494,-0.2283371788129024,84.14747164319668
2.77,-0.35431245563884156,-0.2011297006308316,84.0465815662299
2.78,-0.21219155540956344,-0.12064091100887211,83.9683402820516
2.79,-0.06078706131324312,-0.06911279462625836,83.81082822311367
2.8,-0.017304345921288187,-0.03668527702553443,83.66567005115127
2.81,-0.012662548987767096,-0.04595216518541611,83.54213118139603
2.82,-0.007440527437555868,-0.03379843704400657,83.42991670803504
2.83,0.005904638746317271,-0.03668527702553443,83.27240464909711
2.84,0.0041639648962468615,-0.022791535744573852,83.1941633649188
2.85,0.012287109529908772,-0.0233715401244242,83.18283896852456
2.86,0.01460800799666932,-0.000790915063432291,83.10459768434625
2.87,0.021570703396950955,-0.006577776944211887,82.91414192680692
2.88,0.028533398797232594,0.010782808698126901,82.70000788589785
2.89,0.038397217280964915,0.0055759511971976514,82.52087652475277
2.9,0.03897744189765505,0.018309683718457537,82.31909637081921
2.91,0.05290283269821833,0.015422843736929674,82.13996500967413
2.92,0.07088979581561256,0.04783717941992974,82.16158431188128
2.93,0.0859756358495561,0.040310304399599095,82.59911780893108
2.94,0.10857026504066612,0.0698378001010713,83.90142339426751
2.95,0.13700127125848283,0.07736467512140194,86.72840453049979
2.96,0.1619509297761587,0.10342532646149592,91.05947140600206
2.97,0.19618418216087674,0.10747217520272448,96.16471519863713
2.98,0.23792622370276126,0.14337971908255048,100.97861315676609
2.99,0.2768012730210004,0.14742656782377905,105.11819478414775
3.0,0.300590482305296,0.16364032662414102,107.93488101456708
3.01,0.3243796915895916,0.1648003353838417,109.27013029850491
3.02,0.2849244176546623,0.14858657658347973,109.0786450503843
3.03,0.23096352830247963,0.10574534398089731,107.76604455923493
3.04,0.16253115439284882,0.08258471454005505,105.64529396177008
3.05,0.11089116350742667,0.04437033505855153,103.4463020801269
3.06,0.06334687579864079,0.0345234425188195,101.43776595602304
3.07,0.02273115263033123,0.0032559336777962648,99.6207150800398
3.08,-0.001638281270654503,0.0055759511971976514,98.02706366019729
3.09,-0.007440527437555868,-0.008897794463613273,96.47870982593167
3.1,-0.009181201287626277,0.0055759511971976514,94.98697797363722
3.11,-0.017884570537978324,-0.017584678243644604,93.62907989691094
3.12,-0.008600976670936141,0.0009490980761187492,92.51825955969511
3.13,-0.016724121304598053,-0.01468465634439287,91.57524618723016
3.14,-0.014403222837837506,0.0020959249180955712,90.76812557149596
3.15,-0.013822998221147369,-0.008897794463613273,90.2297019974794
3.16,-0.011502099754386824,0.006155955577047998,89.94865106878623
3.17,-0.013822998221147369,-0.011797816362865008,89.64598083788592
3.18,-0.0062800782041755945,0.011362813077977247,89.25271543583175
3.19,-0.014403222837837506,-0.009477798843463621,88.7595894473921
3.2,-0.006860302820865732,0.018309683718457537,88.25410957197694
3.21,-0.017304345921288187,-0.01121781198301466,87.60347152459937
3.22,-0.016724121304598053,0.011362813077977247,86.98680666640449
3.23,-0.028874707395285616,-0.01642466948394391,86.56059756574894
3.24,-0.02020546900473887,0.010782808698126901,86.40308550681101
3.25,-0.0317758304787363,-0.01468465634439287,86.33616861902692
3.26,-0.02020546900473887,0.01252282183767794,86.56059756574894
3.27,-0.0254274905549501,-0.008317790083762927,87.0990211397655
3.28,-0.03757807664563766,0.002675929297945918,87.83922486771561
3.29,-0.042219873579158754,-0.018744687003345296,88.60207738845418
3.3,-0.028328613638400783,0.006155955577047998,89.43287628755813
3.31,-0.03409672894549685,-0.006577776944211887,90.31926767805194
3.32,-0.04105942434577848,0.0032559336777962648,91.12638829378614
3.33,-0.03931875049570807,-0.011797816362865008,91.72143384977386
3.34,-0.042219873579158754,0.0032559336777962648,92.17029174321787
3.35,-0.042800098195848894,-0.007737785703912581,92.46163757772396
3.36,-0.042219873579158754,0.006155955577047998,92.49561076690665
3.37,-0.04918256897944039,-0.010057803223313967,92.3278038021558
3.38,-0.04860234436275026,0.004415942437496958,92.05807726985687
3.39,-0.042219873579158754,-0.01468465634439287,91.69878505698539
3.4,-0.046861670512679844,0.013102826217528288,91.20565906854574
3.41,-0.04338032281253903,-0.0013709194432826378,90.66723549452918
3.42,-0.02194614285480928,0.03915029563989841,90.16175561911402
3.43,-0.02310659208818955,0.02815657625818956,89.600683252309
3.44,0.021570703396950955,0.08026469702065367,88.92739641214297
3.45,0.03665654343089451,0.05421722759828355,88.29940715755386
3.46,-0.006860302820865732,0.06579095135984274,87.79495677271998
3.47,-0.03293627971211657,0.029316585017890254,87.3234500864875
3.48,-0.0381583012623278,0.02294971875726031,86.86326779664925
3.49,-0.08225537213077817,-0.029158402005203796,86.50397558377779
3.5,-0.05962661207986285,-0.002530928202983331,86.20130535287745
3.51,-0.06774975671352476,-0.03437844142385692,85.89863512197714
3.52,-0.054404590529651624,-0.004850945722384718,85.6289085896782
3.53,-0.05962661207986285,-0.03321843266415622,85.41580403935042
3.54,-0.0828355967474683,-0.05521905334529778,85.24799707459957
3.55,-0.11010615373190473,0.03800346879792158,84.97827054230063
3.56,0.39629341319936323,0.3072309563902734,84.69721961360747
3.57,1.4856480656051918,0.48498911689668084,84.56338583803931
3.58,0.8835455677798567,0.15669345598366072,84.4841150632797
3.59,0.12945835124151103,-0.2237103256918235,84.35028128771152
3.6,-0.28816684933616604,-0.17912907994969005,84.24939121074475
3.61,-0.36011470180574295,-0.1536484329894464,84.14747164319668
3.62,-0.19594526614223962,-0.059845906466376685,83.9683402820516
3.63,-0.06600908286345435,-0.032638428284305875,83.73258693893536
3.64,-0.016143896687907916,0.01252282183767794,83.5308067850018
3.65,-0.020785693621429006,-0.006577776944211887,83.34035102746249
3.66,-0.026007715171640234,0.0055759511971976514,83.1272464771347
3.67,-0.017304345921288187,-0.000790915063432291,82.96973441819678
3.68,-0.002798730504034776,0.026996567498488867,82.94708562540832
3.69,-0.010921875137696687,0.011362813077977247,82.92443683261986
3.7,0.00938598644645809,0.04379033067870118,82.81222235925885
3.71,0.00010239257941590644,0.015422843736929674,82.66706418729646
3.72,0.0111266602965285,0.04321032629885083,82.47660842975714
3.73,0.0064848633630074076,0.020629701237858924,82.19555750106397
3.74,0.03607631881420437,0.054784050060410025,81.94847976155351
3.75,0.03549609419751423,0.04379033067870118,81.88156287376943
3.76,0.061606201948570374,0.08489155014173257,81.99377734713043
3.77,0.0604457527151901,0.06927097763894483,82.3860132586033
3.78,0.0952592297165983,0.10458533522119662,83.5308067850018
3.79,0.10276801887376476,0.09531844706131494,86.0324688975453
3.8,0.14744531435890526,0.13411283092266882,89.94865106878623
3.81,0.16775317594306005,0.13006598218144025,94.99727287945015
3.82,0.2130106960448907,0.17000719288477095,100.02427538790691
3.83,0.2431482452529725,0.17232721040417234,104.20915460086547
3.84,0.2884057653548031,0.20417472362504593,106.91362635792382
3.85,0.2797023961044511,0.17000719288477095,108.22622684907319
3.86,0.26809790377064835,0.17464722792357373,108.31579252964572
3.87,0.2002457544777077,0.11095220148182655,107.2049721924299
3.88,0.14106284357531376,0.09531844706131494,105.05127789636366
3.89,0.09696577270686339,0.054784050060410025,102.84096161832625
3.9,0.045359912681246554,0.036263455658370546,101.01155685536749
3.91,0.00010239257941590644,0.0009490980761187492,99.22744967798565
3.92,-0.010921875137696687,0.01426283497722898,97.49996448257495
3.93,-0.035837402795567255,-0.017004673863794256,95.81674738215987
3.94,-0.02310659208818955,0.006155955577047998,94.20147666011019
3.95,-0.03409672894549685,-0.018744687003345296,92.61914963666189
3.96,-0.021365918238119144,0.004995946817347305,91.24992716354137
3.97,-0.035837402795567255,-0.017004673863794256,90.23999690329234
3.98,-0.02658793978833037,0.0038359380576466116,89.49979317534222
3.99,-0.03699785202894753,-0.018744687003345296,88.84915512796465
4.0,-0.03003515662866589,0.007315964336748692,88.31073155394809
4.01,-0.047441895129369985,-0.010057803223313967,87.90717124608099
4.02,-0.04570122127929958,0.007895968716599039,87.52523024042105
4.03,-0.0509232428295108,-0.010637807603164314,86.99813106279872
4.04,-0.04570122127929958,0.00904279555857586,86.4700023945951
4.05,-0.06078706131324312,-0.014104651964542523,85.97687640615545
4.06,-0.0619475105466234,-0.00021091068358194428,85.46110162492734
4.07,-0.07355200288042613,-0.019324691383195643,85.05651182647895
4.08,-0.06774975671352476,-0.004270941342534372,84.98959493869486
4.09,-0.07935424904732749,-0.017004673863794256,85.19137509262842
4.1,-0.06949043056359518,0.006155955577047998,85.66288177886089
4.11,-0.09734121216472172,-0.023951544504274547,86.36911231762832
4.12,-0.08573671983091899,0.0020959249180955712,87.33477448288174
4.13,-0.09966211063148227,-0.01642466948394391,88.32205595034232
4.14,-0.09560053831465132,0.004995946817347305,89.26403983222598
4.15,-0.10604458141507377,-0.017004673863794256,90.16175561911402
4.16,-0.098501661398102,0.01426283497722898,90.94725693264105
4.17,-0.11068637834859486,-0.006010954482085411,91.50832929944607
4.18,-0.11822929836556663,-0.00021091068358194428,91.890270305106
4.19,-0.12635244299922854,-0.01816468262349495,92.11469925182801
4.2,-0.11010615373190473,0.010202804318276554,92.10337485543378
4.21,-0.11822929836556663,-0.01990469576304599,91.87894590871177
4.22,-0.1275128922326088,0.002675929297945918,91.56392179083593
4.23,-0.124031544532468,-0.004850945722384718,91.11609338797321
4.24,-0.09676098754803159,0.03336343375911881,90.53237222837971
4.25,-0.10256323371493295,0.029316585017890254,89.99394865436315
4.26,-0.04338032281253903,0.08142470578035436,89.45552508034659
4.27,-0.0619475105466234,0.05652406319996106,88.86047952435888
4.28,-0.10198300909824282,0.0698378001010713,88.26543396837117
4.29,-0.1257722183825384,0.025256554358937828,87.77230797993153
4.3,-0.11822929836556663,0.01252282183767794,87.28947689730481
4.31,-0.1559097675906202,-0.01642466948394391,86.76237771968248
4.32,-0.14840097843345373,-0.012377820742715354,86.32484422263269
4.33,-0.1478207538167636,-0.02859157954307732,85.98820080254968
4.34,-0.13099423993274964,-0.01121781198301466,85.64023298607243
4.35,-0.14201850764986224,-0.0424853208240379,85.30358956598943
4.36,-0.16403291222428212,-0.062165923985778075,85.12445820484433
4.37,-0.16867470915780322,0.06000408947906315,84.97827054230063
4.38,0.5210075749279373,0.3315515945908164,84.75384159557862
4.39,1.4067716485951385,0.4508215861564059,84.51808825246239
4.4,0.7628929783681135,0.09647845582101564,84.3719005899187
4.41,-0.026007715171640234,-0.22545033883137455,84.17012043598514
4.42,-0.40649854028114857,-0.18723595934987103,83.94569148926314
4.43,-0.43492954649896526,-0.16291532114932808,83.80053331730073
4.44,-0.25976997397815466,-0.06737278148670732,83.69861374975267
4.45,-0.136796486099651,-0.03726528140538478,83.56477997418449
4.46,-0.11706884913218636,-0.017004673863794256,83.42991670803504
4.47,-0.12345131991577786,-0.029158402005203796,83.35167542385672
4.48,-0.09095874138113022,-0.0013709194432826378,83.27240464909711
4.49,-0.09618076293134145,-0.014104651964542523,83.13857087352893
4.5,-0.07181132903035571,0.01426283497722898,83.0479757023751
4.51,-0.08457627059753872,-0.04537216080556576,82.92443683261986
4.52,-0.059046387463172714,-0.01990469576304599,82.80192745344593
4.53,-0.07123110441366558,-0.029158402005203796,82.66706418729646
4.54,-0.04338032281253903,0.0009490980761187492,82.48690333557008
4.55,-0.05962661207986285,-0.02048470014289634,82.21820629385243
4.56,-0.042219873579158754,0.0032559336777962648,81.99377734713043
4.57,-0.042800098195848894,-0.006577776944211887,81.8702384773752
4.58,-0.010921875137696687,0.02467654997908748,81.85891408098097
4.59,-0.013242773604457234,0.011942817457827595,82.21820629385243
4.6,0.03607631881420437,0.0594240850992128,83.64302125836281
4.61,0.03549609419751423,0.04437033505855153,86.78502651247094
4.62,0.0952592297165983,0.08953158518053535,91.34052233469521
4.63,0.1097307142740464,0.0877915720409843,96.50135861872013
4.64,0.16833340055975018,0.13006598218144025,101.32555148266204
4.65,0.18167856674362332,0.12079909402155858,105.10687038775352
4.66,0.2303833036857895,0.15553344722396004,107.46337432833461
4.67,0.20720844987798934,0.11673906336260616,108.43933139940096
4.68,0.18574013906045428,0.1138522233810783,108.21490245267896
4.69,0.10740981580728585,0.05884408071936245,106.92495075431805
4.7,0.061606201948570374,0.04669035257795291,104.79287576045895
4.71,-0.014983447454527642,-0.004850945722384718,102.68344955938832
4.72,-0.03351650432880671,-0.008897794463613273,100.88801798561225
4.73,-0.08399604598084859,-0.04364532958373859,99.1378839974131
4.74,-0.08341582136415844,-0.029738406385054143,97.35377682003126
4.75,-0.11184682758197513,-0.05521905334529778,95.73850609798156
4.76,-0.09211919061451049,-0.038425290165085474,94.2457447551058
4.77,-0.11880952298225678,-0.06795278586655767,92.80960539420121
4.78,-0.09560053831465132,-0.04074530768448686,91.5865705836244
4.79,-0.12287109529908773,-0.06390593712532912,90.68885479673635
4.8,-0.09618076293134145,-0.035538450183557606,90.00527305075738
4.81,-0.13099423993274964,-0.0708528077658094,89.41022749476967
4.82,-0.0938598644645809,-0.038425290165085474,88.95004520493143
4.83,-0.12171064606570746,-0.06911279462625836,88.50118731148741
4.84,-0.09502031369796117,-0.038425290165085474,87.99673692665353
4.85,-0.12113042144901731,-0.058699079624399866,87.47993265484413
4.86,-0.10952592911521458,-0.047692178324967145,87.05372355418858
4.87,-0.13099423993274964,-0.06680595902458085,86.51529998017202
4.88,-0.10952592911521458,-0.04943219146451819,86.02217399173237
4.89,-0.12287109529908773,-0.06448594150517946,85.72979866664498
4.9,-0.10546435679838363,-0.044225333963588936,85.57331609828834
4.91,-0.12287109529908773,-0.06042591084622703,85.6289085896782
4.92,-0.1048841321816935,-0.04537216080556576,86.0324688975453
4.93,-0.1275128922326088,-0.06853279024640802,86.72840453049979
4.94,-0.10314345833162308,-0.04537216080556576,87.49125705123836
4.95,-0.13157446454943977,-0.0754796608868883,88.32205595034232
4.96,-0.09676098754803159,-0.04074530768448686,89.21977173723036
4.97,-0.12287109529908773,-0.06795278586655767,89.99394865436315
4.98,-0.09211919061451049,-0.04074530768448686,90.67753040034212
4.99,-0.12345131991577786,-0.07489965650703796,91.23860276714714
5.0,-0.08689716906429927,-0.038425290165085474,91.56392179083593
5.01,-0.09734121216472172,-0.06853279024640802,91.67613626419693
5.02,-0.07877402443063736,-0.035538450183557606,91.69878505698539
5.03,-0.08341582136415844,-0.053479040205746745,91.5196536958403
5.04,-0.052083692062891075,-0.015264660724243217,91.19433467215151
5.05,-0.06310795978000366,-0.03726528140538478,90.77944996789019
5.06,-0.024847265938259963,0.017149674958756845,90.28529448886925
5.07,-0.01208232437107696,-0.0054309501022350645,89.600683252309
5.08,-0.02310659208818955,0.02294971875726031,88.98401839411412
5.09,-0.0828355967474683,-0.0233715401244242,88.45691921649178
5.1,-0.05556503976303189,-0.02453154888412489,87.89584684968676
5.11,-0.11300727681535541,-0.076639669646589,87.41301576706005
5.12,-0.07645312596387681,-0.05579905772514813,86.99813106279872
5.13,-0.10430390756500336,-0.08880657970572241,86.49265118738356
5.14,-0.06542885824676421,-0.06390593712532912,85.99952519894391
5.15,-0.08051469828070776,-0.08590655780647068,85.61758419328397
5.16,-0.0665893074801445,-0.11427404474824218,85.2582919804125
5.17,-0.13795693533303127,-0.06448594150517946,84.90002925812232
5.18,0.23908667293614153,0.20822157236627448,84.6303027258234
5.19,1.571521308875332,0.44561472865547663,84.42852257188984
5.2,1.1155671527363007,0.23544223246606916,84.23806681435052
5.21,0.23444487600262046,-0.24281092447371333,84.09187915180682
5.22,-0.2557084016613237,-0.23934408011233513,84.00231347123429
5.23,-0.3781016649231372,-0.22255031693212282,83.84480141229636
5.24,-0.18260009995836649,-0.11543405350794288,83.6769944475455
5.25,-0.06774975671352476,-0.08995340654769923,83.56477997418449
5.26,-0.0190450197713586,-0.05579905772514813,83.46388989721773
5.27,-0.035257178178877115,-0.08185970906524212,83.31770223467403
5.28,0.01286733414659891,-0.03668527702553443,83.27240464909711
5.29,-0.007440527437555868,-0.062165923985778075,83.21681215770725
5.3,0.023311377247021366,-0.02859157954307732,83.05930009876933
5.31,-0.00047783203727423006,-0.05231903144604605,82.88016873762423
5.32,0.031434521880683276,-0.023951544504274547,82.68971298008492
5.33,0.0064848633630074076,-0.04364532958373859,82.48690333557008
5.34,0.050001709614767645,-0.012957825122565702,82.36439395639613
5.35,0.04013789113103532,-0.02048470014289634,82.29644757803075
5.36,0.06624799888209147,0.0003690936962684025,82.15025991548706
5.37,0.044779688064556414,-0.023951544504274547,81.97112855434197
5.38,0.09409878048321801,0.025836558738788172,81.99377734713043
5.39,0.0952592297165983,0.018309683718457537,82.4652840333629
5.4,0.12829790200813077,0.03858347317777193,83.90142339426751
5.41,0.13410014817503213,0.036263455658370546,87.02077985558718
5.42,0.2019864283277781,0.08547155452158292,91.56392179083593
5.43,0.2054677760279189,0.07910468826095297,96.669165583471
5.44,0.2733199253208596,0.12079909402155858,101.57262922217251
5.45,0.2785419468710708,0.1115322058616769,105.57837707398599
5.46,0.3354039593067042,0.1387396840437477,108.09136358292372
5.47,0.3319226116065634,0.12368593400308645,109.06732065399007
5.48,0.31741699618930996,0.11327221900122794,108.86554050005653
5.49,0.23270420215255003,0.06000408947906315,107.55294000890716
5.5,0.1956039575441866,0.051897210078882164,105.34262373086975
5.51,0.11089116350742667,-0.003110932582833678,103.14363184922658
5.52,0.09696577270686339,0.006155955577047998,101.44909035241727
5.53,0.03433564496413396,-0.03379843704400657,99.90073651815167
5.54,0.04013789113103532,-0.017004673863794256,98.36370708028029
5.55,0.0018430664294863158,-0.0471121739451168,96.90491892658723
5.56,0.027372949563852323,-0.02859157954307732,95.44613077289418
5.57,-0.0062800782041755945,-0.05059220022421888,94.0213158083838
5.58,0.023891601863711504,-0.025691557643825587,92.97844184953337
5.59,-0.009761425904316414,-0.05695906648484882,92.17029174321787
5.6,0.02099047878026082,-0.02859157954307732,91.50832929944607
5.61,-0.011502099754386824,-0.059279084004250214,91.0368226132136
5.62,0.016928906463429864,-0.03379843704400657,90.4870746428028
5.63,-0.010921875137696687,-0.056379062104998476,89.85908538821369
5.64,0.012287109529908772,-0.035538450183557606,89.39890309837544
5.65,-0.017304345921288187,-0.059279084004250214,89.01696209271552
5.66,0.012287109529908772,-0.03321843266415622,88.60207738845418
5.67,-0.013242773604457234,-0.0471121739451168,88.10895140001453
5.68,0.009966211063148227,-0.02511155326397524,87.57052782599797
5.69,-0.02658793978833037,-0.05463904896544744,87.12166993255396
5.7,0.0064848633630074076,-0.021064704522746683,86.87459219304348
5.71,-0.024847265938259963,-0.05175220898391957,86.86326779664925
5.72,-0.003959179737415049,-0.030318410764904487,87.07637234697704
5.73,-0.03119560586204616,-0.053479040205746745,87.51390584402682
5.74,0.0064848633630074076,-0.02048470014289634,88.15321949501016
5.75,-0.03641762741225739,-0.05695906648484882,88.90474761935451
5.76,-0.013242773604457234,-0.03726528140538478,89.70157332927577
5.77,-0.04163964896246862,-0.05695906648484882,90.4870746428028
5.78,-0.010921875137696687,-0.02685156640352628,91.17168587936305
5.79,-0.042800098195848894,-0.05753907086469917,91.84497271952908
5.8,-0.002798730504034776,-0.03147841952460518,92.4400182755168
5.81,-0.03699785202894753,-0.04537216080556576,92.77666169559981
5.82,0.01286733414659891,-0.015264660724243217,92.80960539420121
5.83,-0.009181201287626277,-0.02453154888412489,92.5522327488778
5.84,0.0412983403644156,0.007895968716599039,92.0694016662511
5.85,0.01750913108012,0.016569670578906497,91.5865705836244
5.86,0.07843271583258433,0.03278342937926846,91.18301027575728
5.87,0.010546435679838363,0.01600284811678002,90.81239366649159
5.88,-0.001638281270654503,0.021789709997559616,90.35221137665334
5.89,-0.02716816440502051,-0.03321843266415622,89.75819531124692
5.9,-0.035837402795567255,-0.0424853208240379,89.0849084710809
5.91,-0.052083692062891075,-0.06448594150517946,88.3889728381264
5.92,-0.02368681670487969,-0.04943219146451819,87.82790047132139
5.93,-0.042800098195848894,-0.06795278586655767,87.3563937850889
5.94,-0.014983447454527642,-0.05117220460406923,86.98680666640449
5.95,-0.04802211974606012,-0.11833407540719461,86.71708013410556
5.96,-0.07761357519725708,-0.02453154888412489,86.4700023945951
5.97,0.21185024681151043,0.19142780918606217,86.1117396723049
5.98,1.5935357134497519,0.48208909499742914,85.70714987385652
5.99,1.1225298481365822,0.24238910310654946,85.3705064537735
6.0,0.3168367715726198,-0.2092365800310126,85.20269948902265
6.01,-0.2435236847108308,-0.260184692033776,85.07916061926741
6.02,-0.33516504328806707,-0.1988096831114302,84.97827054230063
6.03,-0.19478481690885935,-0.13743467418908442,84.91135365451655
6.04,-0.027748389021710645,-0.062165923985778075,84.84340727615117
6.05,-0.021365918238119144,-0.06332593274547876,84.77649038836708
6.06,0.005904638746317271,-0.03668527702553443,84.66427591500609
6.07,-0.010921875137696687,-0.05117220460406923,84.51808825246239
6.08,0.01576845723004959,-0.022211531364723505,84.3719005899187
6.09,-0.0010580566539643665,-0.04016530330463651,84.3049837021346
6.1,0.02447182648040164,-0.012957825122565702,84.28233490934615
6.11,-0.007440527437555868,-0.038425290165085474,84.20409362516783
6.12,0.030274072647303005,-0.006577776944211887,84.03525716983567
6.13,0.025052051097091774,-0.004850945722384718,83.7892089209065
6.14,0.04419946344786628,0.0055759511971976514,83.50815799221334
6.15,0.019830029546880547,-0.01468465634439287,83.25078534688994
6.16,0.06450732503202106,0.02120970561770927,83.08194889155779
6.17,0.0604457527151901,0.009622799938426208,83.1272464771347
6.18,0.09467900509990815,0.03858347317777193,83.55345557779026
6.19,0.09580532347348313,0.03800346879792158,84.92164856032949
6.2,0.14048261895862363,0.07157781324062233,87.90717124608099
6.21,0.15788935745932772,0.07389783076002372,92.30515500936734
6.22,0.21881294221179207,0.11095220148182655,97.39907440560818
6.23,0.2385064483194514,0.10979219272212587,102.24591606233854
6.24,0.2976893592218453,0.14858657658347973,106.2063663285751
6.25,0.3052322792388171,0.14395972346240082,108.7872992158782
6.26,0.32495991620628173,0.15843346912321177,109.83120266530993
6.27,0.2564934114368456,0.10516533960104696,109.57280052940524
6.28,0.21533159451165124,0.08547155452158292,108.26020003825587
6.29,0.13584082202510253,0.04089030877944944,106.26298831054625
6.3,0.09293833124983775,0.0298965893977406,104.38931545259186
6.31,0.023891601863711504,-0.015264660724243217,102.68344955938832
6.32,0.005904638746317271,-0.007157781324062234,101.0908276301271
6.33,-0.0317758304787363,-0.03379843704400657,99.66498317503543
6.34,-0.02020546900473887,-0.01816468262349495,98.3297338910976
6.35,-0.04570122127929958,-0.04364532958373859,97.02845779634247
6.36,-0.03641762741225739,-0.032638428284305875,95.92896185552088
6.37,-0.04570122127929958,-0.047692178324967145,95.04257046502707
6.38,-0.03641762741225739,-0.04074530768448686,94.30236673707697
6.39,-0.042800098195848894,-0.05117220460406923,93.68467238830078
6.4,-0.020785693621429006,-0.028011575163226974,93.2141951926496
6.41,-0.05150346744620094,-0.05695906648484882,92.91049547116799
6.42,-0.028328613638400783,-0.03900529454493582,92.67474212805175
6.43,-0.04570122127929958,-0.05117220460406923,92.47296197411819
6.44,-0.02368681670487969,-0.027431570783376626,92.10337485543378
6.45,-0.03641762741225739,-0.044792156425715414,91.48568050665762
6.46,-0.028328613638400783,-0.03147841952460518,90.66723549452918
6.47,-0.046861670512679844,-0.053479040205746745,89.85908538821369
6.48,-0.028874707395285616,-0.03147841952460518,89.3093374178029
6.49,-0.03989897511239821,-0.047692178324967145,89.14050096247074
6.5,-0.024267041321569826,-0.02163152698487316,89.28668862501443
6.51,-0.04105942434577848,-0.04306532520388825,89.70157332927577
6.52,-0.028874707395285616,-0.02859157954307732,90.25132129968657
6.53,-0.0445407720459193,-0.047692178324967145,90.8916644412512
6.54,-0.035257178178877115,-0.030898415144754835,91.54230248862876
6.55,-0.05324414129627135,-0.047692178324967145,92.24853302739619
6.56,-0.03873852587901794,-0.02685156640352628,93.02270994452898
6.57,-0.05556503976303189,-0.0471121739451168,93.85350884363294
6.58,-0.03757807664563766,-0.029158402005203796,94.55973938240037
6.59,-0.03467695356218698,-0.04306532520388825,95.03124606863284
6.6,-0.02716816440502051,-0.015844665104093564,95.10948735281116
6.61,-0.019625244388048736,-0.03147841952460518,94.87476350027622
6.62,0.010546435679838363,0.0032559336777962648,94.51547128740474
6.63,0.003003515662866589,0.007895968716599039,94.14485467813904
6.64,0.03781699266427478,0.04147031315929979,93.78556246526756
6.65,0.0412983403644156,0.03162342061956777,93.31508526961638
6.66,-0.014403222837837506,0.026996567498488867,92.74268850641712
6.67,-0.027748389021710645,-0.007157781324062234,92.13631855403519
6.68,-0.016724121304598053,-0.01468465634439287,91.553626885023
6.69,-0.05788593822979244,-0.05405904458559709,90.90195934706414
6.7,-0.035257178178877115,-0.034958445803707265,90.3419164708404
6.71,-0.03757807664563766,-0.05753907086469917,89.91467787960354
6.72,-0.022526367471499418,-0.035538450183557606,89.55641515731337
6.73,-0.024847265938259963,-0.059845906466376685,89.2753642286202
6.74,-0.035257178178877115,-0.09053341092754957,89.02828648910975
6.75,-0.057305713613102306,0.02815657625818956,88.81518193878196
6.76,0.4641796933521092,0.28697034884868294,88.59075299205995
6.77,1.5140790718230086,0.4861491256563815,88.29940715755386
6.78,0.9195194940146452,0.12716596028218852,87.97408813386507
6.79,0.12481655430798995,-0.2549778345328467,87.68274229935898
6.8,-0.2777228062357436,-0.21734345943119357,87.45831335263696
6.81,-0.32007920325412353,-0.18491594183046964,87.3563937850889
6.82,-0.136796486099651,-0.08358654028706929,87.3234500864875
6.83,-0.0190450197713586,-0.05811907524454952,87.27815250091058
6.84,-0.001638281270654503,-0.03958529892478616,87.17726242394382
6.85,0.0012628418127961793,-0.04885218708466784,86.98680666640449
6.86,0.016348681846739727,-0.029738406385054143,86.71708013410556
6.87,0.019830029546880547,-0.04016530330463651,86.48132679098933
6.88,0.027953174180542457,-0.014104651964542523,86.35778792123409
6.89,0.02447182648040164,-0.023951544504274547,86.35778792123409
6.9,0.025052051097091774,-0.007157781324062234,86.35778792123409
6.91,0.02621250033047205,-0.019324691383195643,86.29087103345
6.92,0.05638418039835914,0.02120970561770927,86.15600776730054
6.93,0.0412983403644156,-0.004850945722384718,85.97687640615545
6.94,0.055223731164978876,0.015422843736929674,85.7750962522219
6.95,0.07727226659920405,0.022369714377409963,85.66288177886089
6.96,0.09293833124983775,0.040310304399599095,85.74112306303921
6.97,0.10682959119059572,0.0345234425188195,86.27954663705577
6.98,0.12771767739144063,0.06869097325909447,87.88452245329253
6.99,0.14860576359228556,0.0663709557396931,91.11609338797321
7.0,0.1909621606106655,0.10284532208164557,95.79409858937142
7.01,0.23270420215255003,0.1138522233810783,101.00023245897326
7.02,0.27506059917093,0.14916658096333008,105.82545481349646
7.03,0.3052322792388171,0.15148659848273147,109.46058605604424
7.04,0.3278610392897324,0.1671203529032431,111.74914361825995
7.05,0.326120365439662,0.14916658096333008,112.55729372457544
7.06,0.2814430699545215,0.13815967966389736,112.07446264194874
7.07,0.20604800064460907,0.07679785265927545,110.42521873071635
7.08,0.14686508974221513,0.06174410261861418,108.18092926349627
7.09,0.0842349619994857,0.009622799938426208,106.0941518552141
7.1,0.04710058653131696,0.0032559336777962648,104.33269347062071
7.11,0.027953174180542457,-0.014104651964542523,102.76169084356664
7.12,0.0018430664294863158,-0.010057803223313967,101.28128338766642
7.13,-0.02310659208818955,-0.04306532520388825,99.81117083757913
7.14,-0.01846479515466846,-0.022791535744573852,98.40900466585721
7.15,-0.02194614285480928,-0.038425290165085474,97.12934787330924
7.16,-0.03351650432880671,-0.032638428284305875,96.1533908022429
7.17,-0.027748389021710645,-0.037845285785235126,95.42451147068701
7.18,-0.026007715171640234,-0.026271562023675935,94.89638280248337
7.19,-0.03351650432880671,-0.038425290165085474,94.51547128740474
7.2,-0.0317758304787363,-0.025691557643825587,94.29104234068274
7.21,-0.024847265938259963,-0.030318410764904487,94.22309596231734
7.22,-0.028874707395285616,-0.01816468262349495,94.08926218674918
7.23,-0.03699785202894753,-0.03379843704400657,93.7299699738777
7.24,-0.03757807664563766,-0.015844665104093564,93.04535873731744
7.25,-0.03699785202894753,-0.026271562023675935,92.22691372518902
7.26,-0.05382436591296148,-0.027431570783376626,91.5865705836244
7.27,-0.052083692062891075,-0.03437844142385692,91.2283078613342
7.28,-0.04802211974606012,-0.02163152698487316,91.13771269018036
7.29,-0.04570122127929958,-0.02859157954307732,91.32919793830098
7.3,-0.06252773516331353,-0.025691557643825587,91.76673143535078
7.31,-0.06020683669655299,-0.03900529454493582,92.38339629354564
7.32,-0.05382436591296148,-0.02163152698487316,93.04535873731744
7.33,-0.054404590529651624,-0.026271562023675935,93.69599678469501
7.34,-0.0619475105466234,-0.018744687003345296,94.33531043567835
7.35,-0.06020683669655299,-0.02859157954307732,95.03124606863284
7.36,-0.06368818439669381,-0.02685156640352628,95.7158573051931
7.37,-0.058466162846482574,-0.03437844142385692,96.2316320864212
7.38,-0.054404590529651624,-0.019324691383195643,96.50135861872013
7.39,-0.03409672894549685,-0.019324691383195643,96.6362218848696
7.4,-0.016724121304598053,0.006155955577047998,96.62489748847537
7.41,-0.0010580566539643665,0.006155955577047998,96.44473663674898
7.42,-0.02716816440502051,0.02641656311863852,96.05250072527612
7.43,0.0412983403644156,0.036843460038220886,95.42451147068701
7.44,0.00938598644645809,0.04147031315929979,94.73990023412675
7.45,-0.024267041321569826,0.0345234425188195,94.08926218674918
7.46,-0.030615381245356024,0.008475973096449386,93.53951421633839
7.47,-0.061367285929933256,-0.03958529892478616,93.03403434092321
7.48,-0.05382436591296148,-0.030898415144754835,92.5522327488778
7.49,-0.05266391667958121,-0.05175220898391957,92.08072606264533
7.5,-0.04860234436275026,-0.037845285785235126,91.63186816920131
7.51,-0.03119560586204616,-0.03958529892478616,91.18301027575728
7.52,-0.024847265938259963,-0.04190531644418755,90.76812557149596
7.53,-0.06716953209683463,-0.08069970030554142,90.38618456583603
7.54,-0.0683299813302149,0.07968469264080331,90.06086554214724
7.55,0.8945698354969692,0.35355221527195796,89.87040978460793
7.56,1.3586130054098573,0.4027734960528942,89.79113900984831
7.57,0.6683504967074266,-0.04364532958373859,89.73554651845846
7.58,-0.013242773604457234,-0.23355721823155554,89.600683252309
7.59,-0.34270796330503883,-0.21096341125283977,89.36492990919275
7.6,-0.30499336322018,-0.14844157548851716,89.07358407468666
7.61,-0.13099423993274964,-0.08242653152736859,88.87180392075311
7.62,-0.020785693621429006,-0.04074530768448686,88.73694065460364
7.63,0.003583740279556725,-0.030898415144754835,88.6134017848484
7.64,0.012287109529908772,-0.01468465634439287,88.47853851869894
7.65,0.011706884913218637,-0.02685156640352628,88.3889728381264
7.66,0.02273115263033123,-0.015264660724243217,88.29940715755386
7.67,0.02911362341392273,-0.017004673863794256,88.17586828779862
7.68,0.03897744189765505,0.0009490980761187492,88.04100502164916
7.69,0.05290283269821833,0.006735959956898345,87.82790047132139
7.7,0.04826103576469724,0.010202804318276554,87.60347152459937
7.71,0.06508754964871119,0.01426283497722898,87.44698895624273
7.72,0.061606201948570374,0.017149674958756845,87.34609887927597
7.73,0.07669204198251392,0.01772967933860719,87.26682810451635
7.74,0.10218779425707462,0.04321032629885083,87.2112356131265
7.75,0.10682959119059572,0.04147031315929979,87.26682810451635
7.76,0.12829790200813077,0.0594240850992128,87.74965918714307
7.77,0.1526673359091165,0.07736467512140194,89.24139103943752
7.78,0.17297519749327128,0.09011158956038569,92.33912819855003
7.79,0.20720844987798934,0.10979219272212587,96.75976075462484
7.8,0.2414075714029021,0.1312128090234171,101.80838256528875
7.81,0.28028262072114124,0.153793434084409,106.41947087890287
7.82,0.30755317770557766,0.1624803178644403,110.08857531063335
7.83,0.326120365439662,0.1659603441435424,112.37816236343035
7.84,0.31219497463909873,0.1520666028625818,113.23058056474147
7.85,0.2605549837536766,0.1126922146213776,112.82702025687438
7.86,0.2066282252612992,0.08605155890143326,111.34558331039285
7.87,0.13468037279172226,0.03915029563989841,109.1908595237453
7.88,0.09003720816638706,0.018889688098307884,107.10408211546313
7.89,0.050001709614767645,-0.010057803223313967,105.16349236972466
7.9,0.03433564496413396,-0.006010954482085411,103.36806079594858
7.91,0.013447558763289045,-0.02453154888412489,101.70749248832198
7.92,0.008805761829767954,-0.015264660724243217,100.18178744684482
7.93,-0.005119628970795322,-0.03205842390445553,98.8794818615084
7.94,-0.009761425904316414,-0.03321843266415622,97.79131031708104
7.95,0.0006826171961060429,-0.018744687003345296,96.90491892658723
7.96,-0.006860302820865732,-0.029738406385054143,96.19868838781981
7.97,-0.008600976670936141,-0.02859157954307732,95.68188411601041
7.98,-0.008600976670936141,-0.0233715401244242,95.33391629953317
7.99,-0.0010580566539643665,-0.013537829502416047,95.10948735281116
8.0,-0.008020752054246004,-0.02453154888412489,94.87476350027622
8.01,-0.008600976670936141,-0.022211531364723505,94.51547128740474
8.02,-0.0033789551207249126,-0.017004673863794256,94.03264020477803
8.03,-0.009181201287626277,-0.0233715401244242,93.69599678469501
8.04,0.00010239257941590644,-0.017584678243644604,93.2141951926496
8.05,-0.014403222837837506,-0.018744687003345296,92.67474212805175
8.06,-0.021365918238119144,-0.03379843704400657,92.27118182018465
8.07,-0.028328613638400783,-0.030898415144754835,92.12499415764096
8.08,-0.016724121304598053,-0.022791535744573852,92.42869387912258
8.09,-0.02658793978833037,-0.03147841952460518,93.1019807192886
8.1,-0.01846479515466846,-0.022791535744573852,93.9091013350228
8.11,-0.03293627971211657,-0.03726528140538478,94.85211470748776
8.12,-0.012662548987767096,-0.02511155326397524,95.74983049437579
8.13,-0.03351650432880671,-0.037845285785235126,96.46738542953744
8.14,-0.021365918238119144,-0.03147841952460518,97.07375538191938
8.15,-0.03699785202894753,-0.03900529454493582,97.43304759479086
8.16,-0.017304345921288187,-0.026271562023675935,97.61217895593595
8.17,-0.009181201287626277,-0.029738406385054143,97.77998592068681
8.18,-0.019625244388048736,-0.026271562023675935,97.76866152429258
8.19,0.005904638746317271,-0.02685156640352628,97.51128887896918
8.2,0.009966211063148227,-0.01121781198301466,97.05110658913092
8.21,0.03201474649737341,0.009622799938426208,96.50135861872013
8.22,0.014027783379979182,0.025256554358937828,95.99587874330497
8.23,0.06972934658223229,0.03278342937926846,95.44613077289418
8.24,0.030274072647303005,0.025836558738788172,94.81814151830507
8.25,-0.015563672071217779,0.015422843736929674,94.23442035871157
8.26,-0.01034165052100655,-0.013537829502416047,93.71864557748347
8.27,-0.042219873579158754,-0.03668527702553443,93.19154639986114
8.28,-0.035837402795567255,-0.05117220460406923,92.72003971362867
8.29,-0.042219873579158754,-0.05231903144604605,92.23720863100196
8.3,-0.027748389021710645,-0.0528990358258964,91.76673143535078
8.31,-0.03409672894549685,-0.05811907524454952,91.37346603329661
8.32,-0.019625244388048736,-0.08474654904676998,91.04814700960783
8.33,-0.06252773516331353,-0.076639669646589,90.75680117510173
8.34,0.061606201948570374,0.12658595590233818,90.52104783198548
8.35,1.2623298498990998,0.40334031851502067,90.30794328165771
8.36,1.3638350269600685,0.3778728534725009,90.09483873132993
8.37,0.5320318426450499,-0.1252809460476749,89.937326672392
8.38,-0.14549985535000304,-0.22775717443305207,89.76951970764115
8.39,-0.3618553756558134,-0.21328342877224113,89.58935885591477
8.4,-0.21219155540956344,-0.12932779478890344,89.4215518911639
8.41,-0.07413222749711626,-0.07433283404491148,89.25271543583175
8.42,-0.005699853587485458,-0.05405904458559709,89.07358407468666
8.43,-0.014403222837837506,-0.05117220460406923,88.92739641214297
8.44,0.003583740279556725,-0.047692178324967145,88.84915512796465
8.45,-0.003959179737415049,-0.04827218270481749,88.84915512796465
8.46,0.013447558763289045,-0.03726528140538478,88.77091384378633
8.47,0.014027783379979182,-0.029738406385054143,88.63605057763687
8.48,0.02563227571378191,-0.026271562023675935,88.54648489706433
8.49,0.02621250033047205,-0.017584678243644604,88.3889728381264
8.5,0.04245878959779587,-0.017584678243644604,88.17586828779862
8.51,0.03491586958082409,-0.011797816362865008,87.96276373747084
8.52,0.043619238831176146,-0.009477798843463621,87.72701039435461
8.53,0.05174238346483805,0.004415942437496958,87.58082273181091
8.54,0.07030957119892242,0.007895968716599039,87.68274229935898
8.55,0.0778524912158942,0.020629701237858924,88.18719268419285
8.56,0.10857026504066612,0.029316585017890254,89.66862963067437
8.57,0.1271374527747505,0.04669035257795291,92.70871531723444
8.58,0.18051811751024305,0.06927097763894483,97.25288674306448
8.59,0.20604800064460907,0.09069159394023603,102.50431819824324
8.6,0.26171543298705685,0.1126922146213776,107.39645744055052
8.61,0.2889859899714933,0.13006598218144025,111.21072004424339
8.62,0.33308306083994366,0.1410597015631491,113.80297732794072
8.63,0.32379946697290146,0.1387396840437477,114.89114887236808
8.64,0.30117070692198616,0.11499905022305511,114.55450545228507
8.65,0.2176524929784118,0.07736467512140194,113.00615161801946
8.66,0.16137070515946855,0.04553034381825222,110.82980852916475
8.67,0.09293833124983775,0.021789709997559616,108.73170672448835
8.68,0.050001709614767645,-0.006577776944211887,107.00319203849637
8.69,0.00010239257941590644,-0.025691557643825587,105.56705267759176
8.7,-0.008600976670936141,-0.029158402005203796,104.1875352986583
8.71,-0.029454932011975753,-0.030318410764904487,102.82963722193202
8.72,-0.02310659208818955,-0.03147841952460518,101.57262922217251
8.73,-0.04628144589598971,-0.038425290165085474,100.4618088849567
8.74,-0.03699785202894753,-0.044225333963588936,99.69895636421812
8.75,-0.05150346744620094,-0.03958529892478616,99.18318158299002
8.76,-0.03931875049570807,-0.044792156425715414,98.80124057733008
8.77,-0.05382436591296148,-0.0471121739451168,98.64475800897345
8.78,-0.04163964896246862,-0.04595216518541611,98.55416283781962
8.79,-0.06426840901338395,-0.0528990358258964,98.42032906225144
8.8,-0.046861670512679844,-0.04943219146451819,98.13927813355828
8.81,-0.058466162846482574,-0.04537216080556576,97.60085455954172
8.82,-0.046861670512679844,-0.044792156425715414,97.12934787330924
8.83,-0.06426840901338395,-0.04653216956526646,97.20861864806885
8.84,-0.05788593822979244,-0.04653216956526646,97.0397821927367
8.85,-0.07065087979697544,-0.04827218270481749,96.28825406839235
8.86,-0.06310795978000366,-0.04827218270481749,95.41318707429278
8.87,-0.07297177826373599,-0.04016530330463651,94.78416832912238
8.88,-0.0619475105466234,-0.0424853208240379,94.66165894994843
8.89,-0.08167514751408804,-0.04653216956526646,95.04257046502707
8.9,-0.0665893074801445,-0.04190531644418755,95.72718170158733
8.91,-0.08573671983091899,-0.05117220460406923,96.52400741150859
8.92,-0.07529267673049654,-0.050012195844368536,97.26421113945871
8.93,-0.09037851676444009,-0.05405904458559709,97.93749797962474
8.94,-0.07413222749711626,-0.0471121739451168,98.56548723421385
8.95,-0.08863784291436967,-0.04364532958373859,99.08229150602324
8.96,-0.0747124521138064,-0.047692178324967145,99.42922983191919
8.97,-0.08341582136415844,-0.044792156425715414,99.66498317503543
8.98,-0.07413222749711626,-0.04827218270481749,99.69895636421812
8.99,-0.0747124521138064,-0.0424853208240379,99.5414443052802
9.0,-0.056725488996412166,-0.044792156425715414,99.21612528159142
9.01,-0.08167514751408804,-0.0424853208240379,98.66637731118063
9.02,-0.03409672894549685,-0.01990469576304599,98.12795373716405
9.03,-0.03235605509542643,-0.010637807603164314,97.56688137035903
9.04,-0.0317758304787363,0.0055759511971976514,96.96154090855838
9.05,0.01576845723004959,0.03220342499941811,96.38914414535913
9.06,0.005904638746317271,0.021789709997559616,95.77247928716424
9.07,-0.061367285929933256,0.017149674958756845,95.17743373117654
9.08,-0.042219873579158754,-0.0013709194432826378,94.62768576076574
9.09,-0.07703335058056694,-0.04537216080556576,94.05528899756649
9.1,-0.09269941523120064,-0.059279084004250214,93.64040429330517
9.11,-0.09153896599782035,-0.05231903144604605,93.30376087322215
9.12,-0.07355200288042613,-0.06506594588502981,92.91049547116799
9.13,-0.07877402443063736,-0.058699079624399866,92.52958395608934
9.14,-0.059046387463172714,-0.07143281214565975,92.19294053600633
9.15,-0.0892180675310598,-0.12238092414842316,91.95718719289009
9.16,-0.08457627059753872,0.03220342499941811,91.79967513395216
9.17,0.5140448795276557,0.2898571888302108,91.57524618723016
9.18,1.4966723333223044,0.49714284503809036,91.30654914551252
9.19,0.8754224231461948,0.10516533960104696,91.12638829378614
9.2,0.06450732503202106,-0.2387640757324848,90.98123012182374
9.21,-0.3641762741225739,-0.24108409325188618,90.86901564846274
9.22,-0.3461893110051797,-0.1866559549700207,90.73415238231327
9.23,-0.1796989768749158,-0.1003803034672816,90.53237222837971
9.24,-0.05788593822979244,-0.06680595902458085,90.35221137665334
9.25,-0.05034301821282067,-0.04885218708466784,90.20705320469094
9.26,-0.04163964896246862,-0.047692178324967145,90.09483873132993
9.27,-0.04105942434577848,-0.03437844142385692,90.06086554214724
9.28,-0.03293627971211657,-0.037845285785235126,90.03821674935878
9.29,-0.03931875049570807,-0.03147841952460518,90.02689235296455
9.3,-0.024847265938259963,-0.03437844142385692,90.02689235296455
9.31,-0.024847265938259963,-0.01642466948394391,89.92600227599777
9.32,-0.017884570537978324,-0.026271562023675935,89.74687091485269
9.33,-0.010921875137696687,-0.009477798843463621,89.600683252309
9.34,0.008225537213077817,-0.003110932582833678,89.37625430558698
9.35,0.016348681846739727,0.017149674958756845,89.1971229444419
9.36,0.018669580313500272,0.0032559336777962648,89.09623286747512
9.37,0.026792724947162186,0.021789709997559616,89.26403983222598
9.38,0.05116215884814792,0.033943438138969155,90.21837760108517
9.39,0.068568897348852,0.054784050060410025,92.46163757772396
9.4,0.10102734502369436,0.0652109469799924,96.38914414535913
9.41,0.1253967789246801,0.09185160269993672,101.3142270862678
9.42,0.17529609596003182,0.11037219710197621,106.47609286087403
9.43,0.20778867449467947,0.13815967966389736,111.00893989030983
9.44,0.2448889191030429,0.1410597015631491,114.40831778974137
9.45,0.2727397007041695,0.1607403047248893,116.13683247573336
9.46,0.2634561068371273,0.13931968842359807,116.51774399081201
9.47,0.20488755141122877,0.11905908088200753,115.7106233750778
9.48,0.13758149587517296,0.07736467512140194,113.7916529315465
9.49,0.06566777426540132,0.05073720131918147,111.49177097293655
9.5,0.010546435679838363,0.016569670578906497,109.5161785474341
9.51,-0.04163964896246862,-0.00021091068358194428,107.76604455923493
9.52,-0.06542885824676421,-0.019324691383195643,106.16209823357947
9.53,-0.07819379981394722,-0.008897794463613273,104.79287576045895
9.54,-0.10082255986486253,-0.03437844142385692,103.43497768373267
9.55,-0.1066248060317639,-0.021064704522746683,102.268564855127
9.56,-0.1066248060317639,-0.035538450183557606,101.38217346463318
9.57,-0.10778525526514418,-0.023951544504274547,100.67491343528447
9.58,-0.11010615373190473,-0.03726528140538478,100.24870433462891
9.59,-0.11068637834859486,-0.02859157954307732,100.06957297348383
9.6,-0.111266602965285,-0.038425290165085474,99.92338531094013
9.61,-0.11010615373190473,-0.026271562023675935,99.83381963036759
9.62,-0.11416772604873568,-0.041325312064337205,99.72160515700658
9.63,-0.11648862451549623,-0.025691557643825587,99.66498317503543
9.64,-0.1159083998988061,-0.03321843266415622,99.20583037577848
9.65,-0.12287109529908773,-0.026271562023675935,98.27414139970774
9.66,-0.12287109529908773,-0.029158402005203796,97.25288674306448
9.67,-0.1304140153160595,-0.02685156640352628,96.34384655978221
9.68,-0.12345131991577786,-0.02859157954307732,95.80542298576565
9.69,-0.13331513839951017,-0.023951544504274547,95.59231843543786
9.7,-0.13447558763289047,-0.03147841952460518,95.58099403904363
9.71,-0.1321546891661299,-0.015264660724243217,95.74983049437579
9.72,-0.149561427666834,-0.04016530330463651,96.09779831085304
9.73,-0.1414382830331721,-0.02048470014289634,96.73711196183638
9.74,-0.13911738456641154,-0.03147841952460518,97.56688137035903
9.75,-0.15014165228352414,-0.028011575163226974,98.52121913921822
9.76,-0.1431789568832425,-0.03321843266415622,99.36231294413511
9.77,-0.14898120305014387,-0.022791535744573852,100.01295099151267
9.78,-0.14840097843345373,-0.04016530330463651,100.38356760077838
9.79,-0.1449196307333129,-0.025691557643825587,100.52975526332207
9.8,-0.136796486099651,-0.02859157954307732,100.49578207413938
9.81,-0.14027783379979183,-0.022211531364723505,100.27135312741737
9.82,-0.14259873226655237,-0.03147841952460518,99.83381963036759
9.83,-0.1414382830331721,-0.02048470014289634,99.22744967798565
9.84,-0.14027783379979183,-0.034958445803707265,98.63343361257922
9.85,-0.13099423993274964,-0.01642466948394391,98.11662934076982
9.86,-0.12635244299922854,-0.03726528140538478,97.7017446365085
9.87,-0.13563603686627074,-0.02048470014289634,97.28685993224717
9.88,-0.13157446454943977,-0.028011575163226974,96.73711196183638
9.89,-0.10836547988183431,0.01252282183767794,96.02985193248766
9.9,-0.09618076293134145,0.006735959956898345,95.30097260093177
9.91,-0.08225537213077817,0.04321032629885083,94.61636136437151
9.92,-0.05498481514634176,0.03336343375911881,94.11088148895635
9.93,-0.10256323371493295,0.04725717504007939,93.83086005084448
9.94,-0.11996997221563704,0.021789709997559616,93.64040429330517
9.95,-0.12287109529908773,0.0038359380576466116,93.44891904518455
9.96,-0.16925493377449335,-0.04943219146451819,93.16889760707268
9.97,-0.1541690937405498,-0.030898415144754835,92.80960539420121
9.98,-0.1449196307333129,-0.047692178324967145,92.46163757772396
9.99,-0.15358886912385966,-0.04364532958373859,92.20426493240056
