time_s,ECG1,ECG2,NIBP
0.0,0.8442435062077743,0.452795692780198,65.39937546141806
0.01,1.2548602134497129,0.5419386923394336,65.08518695290722
0.02,0.4974068841948914,0.0018439309854218846,64.74876812539797
0.03,0.26425956044599586,-0.1926539093568785,64.41160828725545
0.04,0.20511390214161243,-0.13591984079741795,64.0974197787446
0.05,0.23933736250842277,-0.11681671578844724,63.76025994060207
0.06,0.22890179978293707,-0.11160945468561584,63.39049563459521
0.07,0.235837235879999,-0.10292085188230791,62.97478866932497
0.08,0.21091503794242594,-0.10466152273254617,62.570937874187216
0.09,0.2236840184201942,-0.09424700052688337,62.200432557547074
0.1,0.21496611042902752,-0.08787437504126534,61.82992724090693
0.11,0.23817065363228151,-0.08092644308819567,61.43719160526838
0.12,0.22481831871644264,-0.06530465977970147,61.055571129129035
0.13,0.25152298854812044,-0.055450692593606916,60.685065812488894
0.14,0.24513849830923629,-0.03925360281766108,60.32567565534795
0.15,0.26484291488406647,-0.0236170680612835,60.02260230633632
0.16,0.2596251335213236,-0.0027732722020745145,59.8203064034508
0.17,0.28688074921117923,0.019796443059489355,59.8203064034508
0.18,0.28863081252539113,0.052795431974599405,60.25824368771945
0.19,0.3199375007018483,0.08520436297437445,61.56019937039291
0.2,0.3292387631310856,0.14599507970176315,64.0522181301145
0.21,0.3547443155067293,0.1859272491220595,67.55497539363041
0.22,0.3703976595949579,0.2496092496345897,71.80911743929252
0.23,0.41217231907679364,0.2988200797735289,76.26555538784015
0.24,0.4162233915633952,0.3526481130999646,80.12696179786371
0.25,0.4370945170143667,0.3428088973617534,82.88870842809933
0.26,0.44172894393903894,0.2965041024558391,84.3707296946599
0.27,0.40520447439983887,0.17725339776663493,84.85312761692536
0.28,0.3135530104629642,0.05047945465690951,84.61748623554223
0.29,0.27414417731330376,-0.034621648182281306,83.87647560226195
0.3,0.21729952818131007,-0.08613370419102707,82.92279491723022
0.31,0.2161328193051688,-0.11160945468561584,81.80016380781059
0.32,0.17844164088982747,-0.1341791699471797,80.47523679550545
0.33,0.17960834976596873,-0.13649514726486958,79.35260568608581
0.34,0.19756270302658704,-0.11913269310613712,78.60047989330633
0.35,0.1865437858630307,-0.1266559315266584,78.03953484391315
0.36,0.16567266041205922,-0.1370852051802046,77.54528075151521
0.37,0.16683936928820048,-0.13013727322713492,76.99545086162124
0.38,0.16450595153591796,-0.11507604493820899,76.27667054733935
0.39,0.16450595153591796,-0.13013727322713492,75.33410502180683
0.4,0.15698716100078539,-0.12261403480661365,74.16627226375711
0.41,0.16800607816434174,-0.11739202225589887,72.78576945395594
0.42,0.14188476277073458,-0.11913269310613712,71.29263302789616
0.43,0.15465374324850284,-0.11798208017123386,69.80023761246967
0.44,0.14710254413347745,-0.11392543200330572,68.41899379203522
0.45,0.1558204521246441,-0.1237646477415169,67.26301720411797
0.46,0.14305147164687584,-0.12608062505920678,66.38714263558067
0.47,0.16045487904931635,-0.10060487456461803,65.8150824266883
0.48,0.1442181805230171,-0.10408621626509455,65.50015290754418
0.49,0.1888772036153132,-0.08729906857381371,65.38826030191886
0.5,0.19117821278770292,-0.07571918198536427,65.45569226954736
0.51,0.23700394475614026,-0.0531494667238004,65.63501684280119
0.52,0.18540948556678222,-0.08092644308819567,66.14038609469834
0.53,0.11696256483316152,-0.12493001212430353,66.6227840169638
0.54,0.07868803197974956,-0.14403313713327426,66.80284960085092
0.55,0.08215575002828053,-0.1341791699471797,66.713187314224
0.56,0.06475234262584005,-0.1289719088443483,66.4656897627084
0.57,0.06245133345345033,-0.13013727322713492,66.17373157319595
0.58,0.03749672693598445,-0.1446084436007259,65.94920535131203
0.59,0.03402900888745348,-0.14575905653562915,65.7921110970566
0.6,0.019509965095473328,-0.14865034032077065,65.68021849143129
0.61,-0.007745650594382268,-0.15213168202124716,65.53423939667508
0.62,0.035746663621772555,-0.13476922786251472,65.28748285579273
0.63,0.36634658710835627,0.2553918172048727,64.9844095067811
0.64,0.9376126248789681,0.6177758859078649,64.68133615776946
0.65,0.567603868242724,0.25944846537280086,64.33306116012773
0.66,0.0815723955902099,-0.21638898900122902,63.984786162485996
0.67,0.016625601485012985,-0.14807503385331902,63.63725217547754
0.68,-0.019931276634079894,-0.11624140932099561,63.300092337335016
0.69,-0.013546786395195765,-0.09713828431202488,62.96367350982577
0.7,-0.029783484921494994,-0.08903973942405197,62.626513671683234
0.71,-0.04196911096119262,-0.09656297784457325,62.312325163172396
0.72,-0.05065461037246646,-0.08555839772357544,61.93070468703305
0.73,-0.04021904764698073,-0.07571918198536427,61.51573873239609
0.74,-0.045436829009723595,-0.07340320466767439,61.111146926625054
0.75,-0.0494879014963252,-0.047927454173085624,60.7636129396166
0.76,-0.0494879014963252,-0.03925360281766108,60.426453101474074
0.77,-0.030366839359565627,-0.028249022696663274,60.090034273964825
0.78,-0.04138575652312199,-0.013202545855620694,59.79807608445239
0.79,-0.0378856298946982,0.004159908303111772,59.51723305443916
0.8,-0.032084494093884704,0.02211242037717924,59.32679332168613
0.81,-0.015264441129514845,0.046422806488981366,59.40534044881384
0.82,-0.009463305328701347,0.09100168199254086,60.05594778483393
0.83,0.01257452899841138,0.13152390932817218,61.69506330564992
0.84,0.022426737285826483,0.1836112718043696,64.53535706301325
0.85,0.050265707413752705,0.23571338572845035,68.2959860269107
0.86,0.045047926051009844,0.2791268968492232,72.5953297212029
0.87,0.07113683286472418,0.3213897950350928,77.07399798874894
0.88,0.08620682251488214,0.3601713515204859,80.867972431144
0.89,0.09609143938219006,0.32948833992306575,83.4274231584941
0.9,0.05373342546228368,0.236878750111237,84.68491820317074
0.91,0.005023329883385989,0.13267452226307544,84.83089729792695
0.92,-0.07444250801379108,0.02442839769486913,84.28106740803298
0.93,-0.12490266690690066,-0.047352147705634,83.30441539336957
0.94,-0.18463167964935473,-0.1000295680971664,82.14769779481905
0.95,-0.1898494610120976,-0.11218476115306747,80.80054046351549
0.96,-0.2113039409011397,-0.09887895516226314,79.47635446184363
0.97,-0.21710507670195317,-0.10871817090047432,78.54416308517702
0.98,-0.2391429110290659,-0.10640219358278444,77.88244058965773
0.99,-0.2385595565909953,-0.11160945468561584,77.38818649725978
1.0,-0.2426106290775969,-0.10755280651768769,76.93913405349193
1.01,-0.2368419018566762,-0.1000295680971664,76.36707384459955
1.02,-0.24147632878134845,-0.09887895516226314,75.58086156268917
1.03,-0.25421290067922386,-0.09828889724692814,74.51454726139885
1.04,-0.24957847375455164,-0.09539761346178663,73.23482189772379
1.05,-0.26176409979424925,-0.08613370419102707,71.79800227979332
1.06,-0.2890197154841049,-0.09828889724692814,70.21520356710663
1.07,-0.27278301695780566,-0.08613370419102707,68.69983682204845
1.08,-0.29657091459913026,-0.10814286443302269,67.40899629887419
1.09,-0.27103295364359375,-0.08672376210636208,66.4656897627084
1.1,-0.25479625511729453,-0.07166253381743613,65.8261975861875
1.11,-0.25771302730764767,-0.061248011611773324,65.50015290754418
1.12,-0.26523181784278027,-0.07803515930305416,65.38826030191886
1.13,-0.21188729533921033,-0.034046341714829675,65.39937546141806
1.14,-0.20086837817565395,-0.04097952222001597,65.52312423717586
1.15,-0.25421290067922386,-0.04272019307025422,65.7135639699289
1.16,-0.33251202970025967,-0.11739202225589887,65.94920535131203
1.17,-0.34874872822655895,-0.09597291992923826,66.08406928656905
1.18,-0.36673549006707007,-0.11218476115306747,66.11815577569993
1.19,-0.37136991699174227,-0.11450073847075735,66.08406928656905
1.2,-0.39749123238534945,-0.11739202225589887,66.01663731894054
1.21,-0.3876066155180415,-0.10755280651768769,65.8825143943168
1.22,-0.3841388974695105,-0.11624140932099561,65.7135639699289
1.23,-0.39749123238534945,-0.1052368291999978,65.53423939667508
1.24,-0.48042478833105745,-0.13245325054482482,65.34305865328876
1.25,-0.2675652355950628,0.03889956806846008,65.13038860153732
1.26,0.2694773418087387,0.44816373814481825,64.90586237965339
1.27,0.6406852159010169,0.4973745682837575,64.66947998763698
1.28,-0.17536282580001025,0.0012686245179702566,64.38937796825704
1.29,-0.39574116907113754,-0.15965492044176846,64.0863046192454
1.3,-0.42358013919906373,-0.10640219358278444,63.77211611073456
1.31,-0.42763121168566537,-0.09250632967664511,63.457186591590435
1.32,-0.43284899304840824,-0.07455381760257764,63.1429980830796
1.33,-0.4299646294379479,-0.08266711393843393,62.79546409607114
1.34,-0.4462013279642471,-0.0815017495556473,62.469419417427815
1.35,-0.4462013279642471,-0.0658799662471531,62.14411574941777
1.36,-0.45838695400394475,-0.049668125023323885,61.82992724090693
1.37,-0.4224134303229225,-0.03519695464973294,61.52685389189529
1.38,-0.4108111587212955,-0.016669136108213838,61.17857889425356
1.39,-0.413144576473578,-0.01609382964076221,60.80807357761342
1.4,-0.41719564896017963,-0.005679307435099405,60.426453101474074
1.41,-0.4027090137480923,0.0024339889007568877,60.06706294433313
1.42,-0.39399110575692564,0.021537113909727613,59.786960924953185
1.43,-0.3684855533812819,0.04873878380667126,59.70841379782548
1.44,-0.35863334509386685,0.09678424956282389,59.97740065770622
1.45,-0.3452810101780279,0.11762804542203287,60.89773586424033
1.46,-0.33947987437721444,0.16104155654280572,62.929587020694875
1.47,-0.3145576764396414,0.19578121630815404,66.09518444606825
1.48,-0.2843852885594326,0.23977003389637852,69.95733186672508
1.49,-0.24899511931648102,0.2878154996525311,74.2114739123872
1.5,-0.2037527417861143,0.34395951029665667,78.45450079855011
1.51,-0.19331717906062856,0.34164353297896677,81.80016380781059
1.52,-0.22057279475048416,0.2831835450171514,83.91056209139285
1.53,-0.287269652169893,0.1500369764218079,84.84201245742616
1.54,-0.3452810101780279,0.06263464771281058,84.84201245742616
1.55,-0.4009589504338804,-0.013777852323072323,84.28106740803298
1.56,-0.4380667744111511,-0.054875386126155286,83.3711063503648
1.57,-0.47867472501684555,-0.0815017495556473,82.33887853820536
1.58,-0.4920270599326845,-0.09828889724692814,81.08138349352872
1.59,-0.47579036140638525,-0.09597291992923826,79.89132041648058
1.6,-0.48736022442811944,-0.09887895516226314,79.02730201807577
1.61,-0.4769246617026337,-0.09539761346178663,78.45450079855011
1.62,-0.4931613602289329,-0.09424700052688337,78.05065000341236
1.63,-0.45663689068973284,-0.07686979492026753,77.66902952727301
1.64,-0.4891102877423313,-0.10060487456461803,77.17477543487506
1.65,-0.4983791415916758,-0.09365694261154836,76.47896645022487
1.66,-0.49549477798121544,-0.10408621626509455,75.53640092469234
1.67,-0.4926104143707551,-0.09250632967664511,74.32410752864581
1.68,-0.49144370549461386,-0.07282789820022276,72.88654690008205
1.69,-0.4931613602289329,-0.07918577223795742,71.34894983602547
1.7,-0.501295913782029,-0.09076565882640686,69.87878473959738
1.71,-0.47634130726456303,-0.07397851113512602,68.61017453542154
1.72,-0.46823916229135987,-0.07514387551791264,67.62240736125891
1.73,-0.4636047353666876,-0.055450692593606916,66.97105901460554
1.74,-0.45141910932699,-0.049668125023323885,66.6346401870963
1.75,-0.40329236818616293,-0.026508351846425013,66.5331217303369
1.76,-0.38994003327032406,-0.04040421575256434,66.5894385384662
1.77,-0.42763121168566537,-0.050243431490775516,66.713187314224
1.78,-0.4850592152557297,-0.09250632967664511,66.89251188747784
1.79,-0.5105647676313734,-0.09308163614409674,67.04960614173325
1.8,-0.5285515294718846,-0.1000295680971664,67.13926842836017
1.81,-0.5297182383480258,-0.10986878383537757,67.17335491749107
1.82,-0.5082637584589836,-0.09539761346178663,67.18447007699027
1.83,-0.5204493844986813,-0.09771359077947651,67.13926842836017
1.84,-0.5389870921973703,-0.11103414821816421,67.02737582273484
1.85,-0.5157825489941162,-0.09828889724692814,66.87028156847943
1.86,-0.5836461152896664,-0.12144867042382701,66.6679856655939
1.87,-0.45780359956587413,-0.0635639889294632,66.45457460320918
1.88,0.02994552782095906,0.3393275556612769,66.20781806232685
1.89,0.5844239212070939,0.5396227150217437,65.96106152144452
1.9,-0.10399913287603639,0.16973015934611363,65.72467912942811
1.91,-0.47809137057877493,-0.12318934127406528,65.44457711004816
1.92,-0.5070970495828424,-0.07282789820022276,65.14150376103652
1.93,-0.4891102877423313,-0.08035113662074404,64.81545908239319
1.94,-0.5070970495828424,-0.07225259173277113,64.47904025488394
1.95,-0.5123148309455853,-0.07803515930305416,64.13076525724222
1.96,-0.5059303407067012,-0.060672705144321694,63.79434642973296
1.97,-0.4827257975034472,-0.049668125023323885,63.44607143209123
1.98,-0.4966614868573567,-0.047352147705634,63.098537445082776
1.99,-0.47345694365410274,-0.034621648182281306,62.73914728794184
2.0,-0.48969364218040196,-0.034046341714829675,62.357526811802494
2.01,-0.45605353625166223,-0.018985113425903723,61.98702149516235
2.02,-0.4444512646500352,-0.013777852323072323,61.583170700024596
2.03,-0.4287979205618066,0.00938192085382655,61.234895702382865
2.04,-0.3951578146330669,0.0342676134330803,60.97702400200132
2.05,-0.3847222519075812,0.04527219355407811,60.84216006674431
2.06,-0.37428668918209546,0.07015788613333186,61.03259979949735
2.07,-0.35921669953193747,0.10084089773075203,61.88624404903623
2.08,-0.34064658325335573,0.1396224542161451,63.850663237862264
2.09,-0.2832185796832914,0.1842013297197046,66.97105901460554
2.1,-0.2756997891481588,0.22298288620509768,70.91101255175681
2.11,-0.23567519298053494,0.27217896489615356,75.37856565980366
2.12,-0.19218287876438012,0.3237057723527827,79.64456387559825
2.13,-0.15737606395949913,0.33991761357661193,82.95614039572784
2.14,-0.185798388525496,0.26524578439096724,85.04430836031167
2.15,-0.2176884311400238,0.1708807722810169,86.0320755344743
2.16,-0.2762507350063366,0.07130849906823512,86.14396814009962
2.17,-0.3499154371027002,0.005900579153350031,85.65045505833496
2.18,-0.40329236818616293,-0.04909281855587226,84.83089729792695
2.19,-0.42533020251327563,-0.07282789820022276,83.87647560226195
2.2,-0.424746848075205,-0.08498309125612383,82.74272933334312
2.21,-0.443284555773894,-0.09308163614409674,81.60898306442428
2.22,-0.43284899304840824,-0.09365694261154836,80.82351179314718
2.23,-0.4386501288492217,-0.09308163614409674,80.28479706275242
2.24,-0.4287979205618066,-0.09134096529385848,79.91429174611227
2.25,-0.41719564896017963,-0.07571918198536427,79.55490158897133
2.26,-0.4224134303229225,-0.08555839772357544,79.04953233707418
2.27,-0.41952906671246215,-0.07861046577050579,78.42115532005249
2.28,-0.4224134303229225,-0.08844968150871696,77.62382787864291
2.29,-0.4055933773585526,-0.08209180747098231,76.57974389635099
2.3,-0.43284899304840824,-0.08324242040588556,75.25555789467913
2.31,-0.4079267951108352,-0.08324242040588556,73.69498950099084
2.32,-0.39749123238534945,-0.08092644308819567,72.03364366117644
2.33,-0.3754533980582367,-0.06298868246201159,70.49604659711986
2.34,-0.3371464566249319,-0.046201534770730746,69.27263804157411
2.35,-0.33947987437721444,-0.049668125023323885,68.39676347303681
2.36,-0.3244098847270565,-0.0421448866028026,67.86916390214125
2.37,-0.27103295364359375,-0.03056500001435316,67.63352252075812
2.38,-0.25712967286957705,-0.027098409761760017,67.61055119112643
2.39,-0.29657091459913026,-0.04561147685539574,67.73429996688424
2.4,-0.3597676453901153,-0.08844968150871696,67.95882618876816
2.41,-0.37311998030595417,-0.09656297784457325,68.19446757015129
2.42,-0.38008782498290894,-0.08209180747098231,68.3856483135376
2.43,-0.3829721885933693,-0.08787437504126534,68.47531060016452
2.44,-0.39282439688078435,-0.10177023894740465,68.48642575966373
2.45,-0.37428668918209546,-0.09424700052688337,68.45308028116611
2.46,-0.3997922415577391,-0.10234554541485628,68.3856483135376
2.47,-0.38647231522179304,-0.1052368291999978,68.2959860269107
2.48,-0.4450346190881059,-0.12723123799411004,68.15000693215448
2.49,-0.2878530066079636,-0.02304176159383187,67.95882618876816
2.5,0.23006850865907832,0.357855374202796,67.74541512638343
2.51,0.75029103309851,0.5228355673304629,67.4986585855011
2.52,0.0032732665691740962,0.15177764727204618,67.22893071498709
2.53,-0.30817318620075723,-0.11624140932099561,66.93771353610794
2.54,-0.34181329212949696,-0.06877125003229462,66.6227840169638
2.55,-0.34933208266462956,-0.08729906857381371,66.26413487045615
2.56,-0.3388965199391438,-0.0658799662471531,65.90474471331521
2.57,-0.3429475924257454,-0.07051192088253287,65.54535455617427
2.58,-0.34874872822655895,-0.06703057918205635,65.17484923953414
2.59,-0.34933208266462956,-0.06413929539691483,64.82731525252568
2.6,-0.33309538413833034,-0.05604075050894192,64.49015541438315
2.61,-0.33309538413833034,-0.055450692593606916,64.13076525724222
2.62,-0.29887192377151994,-0.04561147685539574,63.738029621603665
2.63,-0.2890197154841049,-0.020150477808690354,63.31120749683422
2.64,-0.27683408944440724,-0.012627239388169067,62.89624154219726
2.65,-0.2669818811569921,-0.01031126207047918,62.54796654455553
2.66,-0.24727746458216193,0.019221136592037728,62.27897968467478
2.67,-0.2275406394274389,0.04064023891869834,62.200432557547074
2.68,-0.20841957729067934,0.07478984076871165,62.50350590655871
2.69,-0.1764971260962587,0.09852492041306214,63.54758988885063
2.7,-0.1411393654331999,0.1425137380012866,65.73653529956059
2.71,-0.12490266690690066,0.1812952944866797,68.98067985206167
2.72,-0.08371136186313555,0.22819014730792908,72.97695019734225
2.73,-0.055289037297138695,0.28029226123200984,77.39930165675898
2.74,-0.01701450444372674,0.3289130334556141,81.42965849117046
2.75,0.017208955923083614,0.3196491241848545,84.34775836502821
2.76,0.018926610657402695,0.2733443292789402,86.11062266160201
2.77,-0.04890454705825457,0.15294301165483282,86.9190652625108
2.78,-0.11096697755299115,0.06495062503050046,86.9524107410084
2.79,-0.17941389828661186,-0.011461875005382436,86.50335829724057
2.8,-0.2130540042153516,-0.06182331807922495,85.77346282345948
2.81,-0.2310407660558627,-0.08844968150871696,84.90944442505467
2.82,-0.22579057611322703,-0.08613370419102707,83.89870592126036
2.83,-0.24377733795373815,-0.09597291992923826,82.92279491723022
2.84,-0.24611075570602067,-0.08672376210636208,82.21512976244756
2.85,-0.2588797361837889,-0.10292085188230791,81.73273184018208
2.86,-0.23625854741860558,-0.09713828431202488,81.38445684254036
2.87,-0.2408929743432778,-0.10234554541485628,81.01395152590021
2.88,-0.23334177522825242,-0.0896150458915036,80.55378392263316
2.89,-0.23450848410439368,-0.10292085188230791,79.95875238410909
2.9,-0.22057279475048416,-0.09076565882640686,79.17328111283199
2.91,-0.22115614918855478,-0.10060487456461803,78.12919713054006
2.92,-0.20491945066225556,-0.0762944884528159,76.80427011823492
2.93,-0.20433609622418492,-0.08903973942405197,75.28890337317674
2.94,-0.19681730568905234,-0.09134096529385848,73.67275918199243
2.95,-0.18693268882174444,-0.09539761346178663,72.15739243693426
2.96,-0.1527416370348269,-0.07686979492026753,70.89989739225761
2.97,-0.1469405012340134,-0.06182331807922495,69.9343605370934
2.98,-0.1179348222299459,-0.050243431490775516,69.27263804157411
2.99,-0.09764705121704507,-0.05372477319125203,68.93547820343157
3.0,-0.05645574617327996,-0.027098409761760017,68.83470075730546
3.01,-0.08196129854892366,-0.03808823843487445,68.87916139530228
3.02,-0.10399913287603639,-0.05430007965870366,68.87916139530228
3.03,-0.16956168999919674,-0.10814286443302269,68.68872166254924
3.04,-0.17361276248579835,-0.10408621626509455,68.63240485441995
3.05,-0.19506724237484047,-0.12087336395637538,68.72206714104685
3.06,-0.17883054384854122,-0.11392543200330572,68.89027655480147
3.07,-0.17941389828661186,-0.11276006762051909,69.04811181969018
3.08,-0.16547820893270235,-0.10640219358278444,69.092572457687
3.09,-0.17536282580001025,-0.10871817090047432,68.98067985206167
3.1,-0.19448388793676982,-0.12087336395637538,68.76726878967695
3.11,-0.15445929176914597,-0.12550531859175515,68.50865607866213
3.12,0.2027804843893299,0.20966232876640997,68.2618995377798
3.13,0.7804634209787187,0.6015640446840357,68.00402783739825
3.14,0.4318767356516238,0.3734919089591736,67.74541512638343
3.15,-0.08137794411085303,-0.09945426162971477,67.4764282665027
3.16,-0.11446710418141494,-0.08555839772357544,67.17335491749107
3.17,-0.13650493850852766,-0.09887895516226314,66.84731023884774
3.18,-0.13417152075624514,-0.08324242040588556,66.49977625183928
3.19,-0.12837038495543163,-0.07225259173277113,66.16261641369675
3.2,-0.12198589471654751,-0.06413929539691483,65.7809959375574
3.21,-0.13242145744203324,-0.07686979492026753,65.37714514241965
3.22,-0.11910153110608716,-0.06819594356484299,64.9732943472819
3.23,-0.10921691423877926,-0.0531494667238004,64.55758738201166
3.24,-0.08546142517734745,-0.03751293196742282,64.1537365868739
3.25,-0.09473027902669191,-0.04097952222001597,63.76025994060207
3.26,-0.06980808108911885,-0.02187639721104524,63.35640914546432
3.27,-0.06747466333683633,-0.0021979657346228865,62.97478866932497
3.28,-0.053538973982926806,0.0030092953682085157,62.66060016081413
3.29,-0.044853474571652965,0.019221136592037728,62.50350590655871
3.3,-0.01063001420484261,0.05452135137695429,62.67171532031333
3.31,-0.01063001420484261,0.0817377727217813,63.48015792122212
3.32,0.022426737285826483,0.1234106129923159,65.38826030191886
3.33,0.04271450829872732,0.1731967495987068,68.46419544066532
3.34,0.07635461422746705,0.22240757973764605,72.40414897781659
3.35,0.114629147080879,0.2791268968492232,76.8161262883674
3.36,0.17610822313754496,0.3393275556612769,80.8790875906432
3.37,0.1888772036153132,0.3688599543237938,83.93279241039126
3.38,0.2103316835043553,0.33354498809099387,85.85200995058719
3.39,0.16914037846059018,0.23745405657868862,86.795316486753
3.4,0.09780909411650913,0.11705273895458124,86.9976123896385
3.41,0.03052888225902969,0.02268772684463087,86.67156771099519
3.42,-0.004245523965958482,-0.047927454173085624,86.0431906939735
3.43,-0.06167352753602282,-0.0896150458915036,85.26883458219561
3.44,-0.04718689232393549,-0.09828889724692814,84.34775836502821
3.45,-0.06805801777490696,-0.10234554541485628,83.39407767999649
3.46,-0.06225688197409346,-0.10408621626509455,82.641951887217
3.47,-0.06342359085023472,-0.1052368291999978,82.11435231632143
3.48,-0.05240467368667835,-0.10177023894740465,81.73273184018208
3.49,-0.05240467368667835,-0.09771359077947651,81.31702487491185
3.5,-0.05123796481053709,-0.1000295680971664,80.82351179314718
3.51,-0.04832119262018394,-0.09424700052688337,80.21736509512391
3.52,-0.044853474571652965,-0.1000295680971664,79.43115281321353
3.53,-0.05240467368667835,-0.10234554541485628,78.3989250010541
3.54,-0.03905233877083947,-0.09828889724692814,77.07399798874894
3.55,-0.06167352753602282,-0.10697750005023607,75.56974640318997
3.56,-0.012380077519054502,-0.08266711393843393,74.00917800950168
3.57,-0.029200130483424364,-0.1000295680971664,72.5278977535744
3.58,0.005023329883385989,-0.08035113662074404,71.28151786839696
3.59,0.001555611834855016,-0.08266711393843393,70.36118266186284
3.6,0.023593446161967745,-0.07977583015329241,69.81135277196887
3.61,0.06475234262584005,-0.054875386126155286,69.48530809332554
3.62,0.10014251186879167,-0.03751293196742282,69.36230032820102
3.63,0.06070127013923844,-0.05372477319125203,69.42973229582952
3.64,0.04271450829872732,-0.0658799662471531,69.60905686908336
3.65,-0.005995587280170375,-0.11450073847075735,69.81135277196887
3.66,-0.032084494093884704,-0.11798208017123386,69.99067734522271
3.67,-0.04021904764698073,-0.12493001212430353,70.06922447235041
3.68,-0.022815640244540237,-0.11566610285354398,70.05810931285122
3.69,-0.02456570355875213,-0.11507604493820899,69.99067734522271
3.7,-0.02106557693032834,-0.12087336395637538,69.91213021809499
3.71,-0.03325120297002597,-0.12493001212430353,69.83358309096728
3.72,-0.054705682859068065,-0.13649514726486958,69.69871915571026
3.73,-0.008329005032452898,-0.12493001212430353,69.54162490145485
3.74,0.317053137091388,0.23339740841076048,69.31709867957092
3.75,0.9121070725033245,0.6224078405432446,69.07034213868859
3.76,0.5728216496054669,0.34627548761434657,68.78949910867536
3.77,0.06416898818776941,-0.1498157047035573,68.47531060016452
3.78,0.0067733931975978824,-0.11566610285354398,68.12703560252278
3.79,-0.02514905799682276,-0.11681671578844724,67.75653028588265
3.8,-0.02048222249225771,-0.09539761346178663,67.3749098097433
3.81,-0.01759785888179737,-0.08729906857381371,67.00440449310315
3.82,-0.01701450444372674,-0.09134096529385848,66.6005536979654
3.83,-0.029200130483424364,-0.0815017495556473,66.17373157319595
3.84,0.01315788343648201,-0.06239862454667658,65.7476504590598
3.85,-0.000777805917427508,-0.05950734076153506,65.35491482342124
3.86,0.02822787308663998,-0.05604075050894192,64.93920785815101
3.87,0.023010091723897112,-0.046201534770730746,64.52424190351404
3.88,0.045631280489080474,-0.025933045378973386,64.119650097743
3.89,0.040996853564408235,-0.018409806958452096,63.738029621603665
3.9,0.06825246925426383,0.014589181956657952,63.412725953593615
3.91,0.07868803197974956,0.04295621623638823,63.255631699338196
3.92,0.10711035654574642,0.0632099541802622,63.44607143209123
3.93,0.08562346807681151,0.07710581808640153,64.26562919249922
3.94,0.12914819087285914,0.1234106129923159,66.12927093519914
3.95,0.15465374324850284,0.18477663618715623,69.1711195848147
3.96,0.1981460574646577,0.236878750111237,73.03252599483827
3.97,0.20799826575207278,0.2785515903817716,77.37707133776058
3.98,0.267176332636349,0.34164353297896677,81.37334168304115
3.99,0.28921416696346175,0.372326544576387,84.3144128865306
4.0,0.28688074921117923,0.3341202945584455,86.15508329959883
4.01,0.23992071694649342,0.22298288620509768,87.05318818713454
4.02,0.18946055805338383,0.10199151066565529,87.27771440901846
4.03,0.11521250151894963,0.012848511106419692,87.00872754913772
4.04,0.07635461422746705,-0.05835672782663181,86.40258085111444
4.05,0.027644518648569347,-0.09539761346178663,85.65045505833496
4.06,0.03402900888745348,-0.1104440903028292,84.80866697892856
4.07,0.010241111246128856,-0.11681671578844724,83.94390756989046
4.08,0.027644518648569347,-0.10755280651768769,83.25921374473947
4.09,0.005606684321456621,-0.12433995420896853,82.76495965234153
4.1,0.031112236697100323,-0.11450073847075735,82.38333917620218
4.11,0.007356747635668514,-0.11566610285354398,81.96837322156522
4.12,0.03691337249791382,-0.09597291992923826,81.41854333167124
4.13,0.025894455334357455,-0.10408621626509455,80.76719498501788
4.14,0.03519571776359474,-0.10697750005023607,79.94763722460988
4.15,0.03633001805984319,-0.10177023894740465,78.88132292331956
4.16,0.05778449794888529,-0.1000295680971664,77.5563959110144
4.17,0.04329786273679795,-0.10986878383537757,76.02991400645702
4.18,0.05373342546228368,-0.1000295680971664,74.48120178290122
4.19,0.054316779900354314,-0.10351090979764292,73.01029567583986
4.2,0.08562346807681151,-0.07918577223795742,71.75280063116323
4.21,0.0815723955902099,-0.07977583015329241,70.8776670732592
4.22,0.10769371098381705,-0.07686979492026753,70.64202569187607
4.23,0.12856483643478853,-0.04156958013535097,70.73168797850299
4.24,0.15698716100078539,-0.046201534770730746,70.77614861649981
4.25,0.12506470980636472,-0.061248011611773324,70.7991199461315
4.26,0.09087365801944719,-0.094822306994335,70.8324654246291
4.27,0.04271450829872732,-0.12202397689127864,70.8776670732592
4.28,0.0560668432145662,-0.11970799957358876,70.91101255175681
4.29,0.03286230001131221,-0.12839660237689668,70.95621420038691
4.3,0.049098998537611446,-0.13591984079741795,71.01253100851622
4.31,0.040996853564408235,-0.13302855701227645,71.05699164651303
4.32,0.04446457161293921,-0.12954721531179994,71.05699164651303
4.33,0.03691337249791382,-0.12493001212430353,71.00067483838373
4.34,0.01315788343648201,-0.1474997273858674,70.8435805841283
4.35,0.06650240594005194,-0.12608062505920678,70.66425601087448
4.36,0.3959356205504944,0.26697170379332213,70.47307526748817
4.37,0.9747528574361316,0.6525007942253298,70.24854904560424
4.38,0.6128462457730907,0.30343728296102535,70.0017925047219
4.39,0.134365972235602,-0.18802195472149874,69.69871915571026
4.4,0.07868803197974956,-0.12954721531179994,69.37341548770023
4.41,0.050849061851823335,-0.12318934127406528,69.01402533055929
4.42,0.06245133345345033,-0.10351090979764292,68.63240485441995
4.43,0.039246790250196346,-0.09250632967664511,68.2507843782806
4.44,0.05723355209070747,-0.09134096529385848,67.84693358314284
4.45,0.04154779942258605,-0.08613370419102707,67.44234177737181
4.46,0.0757712597893964,-0.07051192088253287,67.00440449310315
4.47,0.059534561263097176,-0.06762063709739136,66.578323378967
4.48,0.08390581334249243,-0.04561147685539574,66.16261641369675
4.49,0.06358563374969878,-0.0525594088084654,65.7809959375574
4.5,0.0989758029926504,-0.03173036439713979,65.41049062091726
4.51,0.08098904115213927,-0.02535773891152176,65.05184147440961
4.52,0.11521250151894963,-0.005679307435099405,64.77099844439638
4.53,0.12334705507204564,0.014013875489206323,64.60278903064176
4.54,0.1476858985715481,0.051054761124361143,64.75988328489717
4.55,0.1482692530096187,0.09041162407720585,65.54535455617427
4.56,0.19234492166384418,0.141938431533835,67.4764282665027
4.57,0.2085816201901434,0.17782870423408656,70.65314085137528
4.58,0.2497729252339085,0.24382668206430666,74.72795832378355
4.59,0.26600962376020776,0.30634331819405025,79.21774175082881
4.6,0.30661757436590226,0.3468655455296816,83.14732113911415
4.61,0.34197533502896105,0.3867977149499779,86.0320755344743
4.62,0.34372539834317295,0.3491815228473715,87.83940046904492
4.63,0.2984830208128062,0.24092064683128175,88.71453402694893
4.64,0.24455514387116564,0.10951474908617657,88.91682992983445
4.65,0.16220494236352825,0.010532533788729806,88.67007338895212
4.66,0.13553268111174327,-0.055450692593606916,88.09727216942645
4.67,0.0972257396784385,-0.08613370419102707,87.37923286577785
4.68,0.08679017695295277,-0.10234554541485628,86.52558861623896
4.69,0.08679017695295277,-0.1104440903028292,85.58302309070645
4.7,0.09434137606797817,-0.09656297784457325,84.84201245742616
4.71,0.06938676955051228,-0.11624140932099561,84.30329772703139
4.72,0.0931746671918369,-0.10871817090047432,83.85424528326354
4.73,0.08098904115213927,-0.1133501255358541,83.39407767999649
4.74,0.08273910446635117,-0.11507604493820899,82.84350677946924
4.75,0.08448916778056306,-0.10640219358278444,82.18178428394994
4.76,0.10189257518300356,-0.09828889724692814,81.29479455591344
4.77,0.08507252221863369,-0.1000295680971664,80.18327860599301
4.78,0.11696256483316152,-0.09597291992923826,78.80277579619184
4.79,0.10594364766960516,-0.08613370419102707,77.24220740250357
4.8,0.12856483643478853,-0.08555839772357544,75.62606321131926
4.81,0.12798148199671788,-0.07340320466767439,74.11069646626109
4.82,0.16220494236352825,-0.06530465977970147,72.90951822971374
4.83,0.15348703437236158,-0.06762063709739136,72.03364366117644
4.84,0.20569725657968307,-0.03925360281766108,71.49492893078168
4.85,0.2161328193051688,-0.047352147705634,71.25928754939855
4.86,0.22251730954405294,-0.04329549953770585,71.22520106026765
4.87,0.14885260744768936,-0.06877125003229462,71.33783467652626
4.88,0.11346243820473774,-0.10234554541485628,71.55124573891098
4.89,0.09142460387762501,-0.11103414821816421,71.79800227979332
4.9,0.09375802162990753,-0.12318934127406528,72.00029818267883
4.91,0.07288689617893607,-0.12318934127406528,72.07884530980654
4.92,0.10014251186879167,-0.12029805748892376,72.11219078830416
4.93,0.0891235947052353,-0.11624140932099561,72.10107562880495
4.94,0.09667479382026069,-0.11798208017123386,72.05587398017485
4.95,0.045631280489080474,-0.14692442091841576,71.98918302317963
4.96,0.0989758029926504,-0.12318934127406528,71.89877972591944
4.97,0.4011534019132373,0.24786857878435142,71.75280063116323
4.98,1.014161690585792,0.6038800220017255,71.54013057941178
4.99,0.652287487502644,0.29070678343767264,71.27040270889775
5.0,0.23642059031806964,-0.18222463570333233,70.98955967888453
5.01,0.14130140833266397,-0.1394011824978945,70.69760148937209
5.02,0.12218034619590439,-0.10234554541485628,70.39452814036046
5.03,0.0949247305060488,-0.07803515930305416,70.09145479134882
5.04,0.114629147080879,-0.07571918198536427,69.70983431520948
5.05,0.0815723955902099,-0.09134096529385848,69.33932899856933
5.06,0.1204302828816925,-0.0762944884528159,68.95770852242998
5.07,0.11637921039509089,-0.04677684123818237,68.57608804629064
5.08,0.1360836269699211,-0.054875386126155286,68.21743889978298
5.09,0.10769371098381705,-0.050243431490775516,67.84693358314284
5.1,0.14246811720880523,-0.03173036439713979,67.44234177737181
5.11,0.13900039916027426,-0.012627239388169067,67.04960614173325
5.12,0.1633716512396695,-0.006829920370002661,66.6679856655939
5.13,0.15232032549622032,0.00938192085382655,66.30859550845297
5.14,0.19351163053998544,0.036583590750770195,66.00552215944133
5.15,0.17844164088982747,0.06784190881564198,65.98329184044293
5.16,0.24802286191969664,0.10084089773075203,66.47680492220759
5.17,0.2317861633933974,0.141938431533835,67.91436555077135
5.18,0.28166296784843636,0.19519115839281903,70.68648632987289
5.19,0.3072009288039729,0.24903394316713806,74.51454726139885
5.2,0.3373409081042888,0.2924474542879109,78.89243808281876
5.21,0.3645965237941444,0.3572800677353444,83.00134204435794
5.22,0.3855000578250087,0.36133671590327254,86.15508329959883
5.23,0.3843333489488674,0.32081448856764117,88.24325126418267
5.24,0.3553276699447999,0.2050303741310302,89.3769975331015
5.25,0.2764451864856935,0.09157698845999249,89.79270449837175
5.26,0.2236840184201942,0.00011801158306700062,89.64672540361552
5.27,0.17030708733673144,-0.051408795873562146,89.15247131121758
5.28,0.1453848893991584,-0.08092644308819567,88.4788926455658
5.29,0.10711035654574642,-0.10234554541485628,87.6593348851578
5.3,0.13144920004524885,-0.10408621626509455,86.70565420012608
5.31,0.12623141868250598,-0.1052368291999978,85.85200995058719
5.32,0.13494932667367265,-0.09539761346178663,85.17843128493541
5.33,0.11116142903234802,-0.10408621626509455,84.63971655454064
5.34,0.12798148199671788,-0.11681671578844724,84.14620347277598
5.35,0.13494932667367265,-0.08844968150871696,83.57340225325032
5.36,0.134365972235602,-0.10929347736792595,82.91093874709775
5.37,0.11871262814737342,-0.10119493247995304,82.10323715682223
5.38,0.14710254413347745,-0.10697750005023607,81.07026833402952
5.39,0.13144920004524885,-0.094822306994335,79.75719749185686
5.4,0.1755248686994743,-0.07803515930305416,78.18551393866937
5.41,0.15523709768657348,-0.07225259173277113,76.49008160972407
5.42,0.20336383882740053,-0.05893203429408343,75.12069395942211
5.43,0.19292827610191482,-0.05950734076153506,74.24481939088481
5.44,0.22890179978293707,-0.03982890928511271,73.51566492773702
5.45,0.2416383716808125,-0.034046341714829675,73.06661248396917
5.46,0.26775968707441966,-0.049668125023323885,72.81985594308682
5.47,0.20799826575207278,-0.060082647228986694,72.71833748632743
5.48,0.1749415142614037,-0.08729906857381371,72.76353913495753
5.49,0.14246811720880523,-0.09597291992923826,72.94286370821136
5.5,0.1320325544833195,-0.11218476115306747,73.21259157872538
5.51,0.10999472015620676,-0.09771359077947651,73.4260026411101
5.52,0.12973154531092979,-0.11218476115306747,73.56012556573383
5.53,0.12101363731976313,-0.10466152273254617,73.58309689536551
5.54,0.13494932667367265,-0.1000295680971664,73.52678008723622
5.55,0.12334705507204564,-0.10351090979764292,73.4260026411101
5.56,0.07113683286472418,-0.12087336395637538,73.32448418435071
5.57,0.22076724622984104,0.021537113909727613,73.20147641922617
5.58,0.7647776683105972,0.41979670386508794,73.05549732446995
5.59,1.2287713066359987,0.5031571358540405,72.86431658108364
5.6,0.4411779980808611,0.07362447638592501,72.58347355107041
5.61,0.17785828645175683,-0.13881112458255948,72.28040020205879
5.62,0.16625601485012984,-0.09076565882640686,71.95509653404874
5.63,0.1436348260849465,-0.07803515930305416,71.5957063769078
5.64,0.15407038881043222,-0.055450692593606916,71.21408590076845
5.65,0.13783369028413298,-0.06530465977970147,70.82135026512991
5.66,0.13958375359834488,-0.06993661441508124,70.41749946999215
5.67,0.14130140833266397,-0.05604075050894192,70.0017925047219
5.68,0.16972373289866083,-0.047927454173085624,69.58682655008495
5.69,0.1558204521246441,-0.026508351846425013,69.18223474431392
5.7,0.1987294119027283,-0.013202545855620694,68.76726878967695
5.71,0.19117821278770292,-0.02187639721104524,68.3856483135376
5.72,0.1981460574646577,-0.005679307435099405,68.00402783739825
5.73,0.19756270302658704,0.01516448842410958,67.59943603162722
5.74,0.23875400807035216,0.04064023891869834,67.26301720411797
5.75,0.22310066398212355,0.06378526064771384,67.09480779036335
5.76,0.2683430415124903,0.09100168199254086,67.27413236361718
5.77,0.27297746843716253,0.11588737457179461,68.12703560252278
5.78,0.31935414626377767,0.1708807722810169,70.21520356710663
5.79,0.3158864282152467,0.20793640936405508,73.63867269286155
5.8,0.36751329598449756,0.25481651073742106,78.12919713054006
5.81,0.3843333489488674,0.3173331468671647,82.74272933334312
5.82,0.45103020636827623,0.35149750016506137,86.52558861623896
5.83,0.4324600900896945,0.3237057723527827,89.18655780034847
5.84,0.44986349749213494,0.2658210908584189,90.83604747003038
5.85,0.35185995189626895,0.15294301165483282,91.67857656007007
5.86,0.29676536607848714,0.04990414818945789,91.85790113332389
5.87,0.22890179978293707,-0.00857059122024092,91.54371262481305
5.88,0.20511390214161243,-0.049668125023323885,90.93756592678979
5.89,0.19117821278770292,-0.07282789820022276,90.18544013401029
5.9,0.18540948556678222,-0.08209180747098231,89.2532487573437
5.91,0.16220494236352825,-0.07340320466767439,88.29956807231197
5.92,0.17439056840322587,-0.08209180747098231,87.48001031190398
5.93,0.14885260744768936,-0.08381772687333719,86.8286619652506
5.94,0.16914037846059018,-0.08672376210636208,86.25660175635822
5.95,0.15698716100078539,-0.0815017495556473,85.75123250446107
5.96,0.16508930597398858,-0.08844968150871696,85.2125177740663
5.97,0.1592881701731751,-0.07977583015329241,84.56116942741293
5.98,0.19062726692952509,-0.07571918198536427,83.74161166700495
5.99,0.1755248686994743,-0.06819594356484299,82.73161417384391
6.0,0.1865437858630307,-0.07397851113512602,81.47411912916726
6.01,0.18424277669064096,-0.06877125003229462,79.88020525698138
6.02,0.21149839238049656,-0.06993661441508124,78.33149303342559
6.03,0.21266510125663782,-0.04909281855587226,77.08511314824814
6.04,0.25440735215858074,-0.033456283799494675,75.9291365603309
6.05,0.25790747878700454,-0.034046341714829675,75.06437715129282
6.06,0.29906637525087687,-0.02535773891152176,74.54789273989645
6.07,0.30486751105169035,-0.020150477808690354,74.33522268814501
6.08,0.2746951231714816,-0.028249022696663274,74.31225135851332
6.09,0.20106282965501082,-0.07166253381743613,74.39079848564103
6.1,0.18424277669064096,-0.08555839772357544,74.60420954802575
6.11,0.16278829680159887,-0.08672376210636208,74.81762061041047
6.12,0.17669157757561557,-0.08903973942405197,75.00880135379678
6.13,0.15118602519997187,-0.0896150458915036,75.13180911892131
6.14,0.16625601485012984,-0.09250632967664511,75.21035624604903
6.15,0.15698716100078539,-0.0896150458915036,75.22147140554823
6.16,0.19004391249145447,-0.07918577223795742,75.16589560805221
6.17,0.07635461422746705,-0.12433995420896853,75.0421468322944
6.18,0.32632199094073244,0.051630067591812774,74.88505257803898
6.19,0.8512113508847291,0.4441070899768901,74.71684316428436
6.2,1.2461747140384392,0.5355808183016989,74.50343210189963
6.21,0.41969110961192624,0.07015788613333186,74.23370423138562
6.22,0.21554946486709817,-0.1133501255358541,73.91951572287478
6.23,0.16045487904931635,-0.06703057918205635,73.53789524673543
6.24,0.20106282965501082,-0.06298868246201159,73.13404445159767
6.25,0.1749415142614037,-0.060672705144321694,72.71833748632743
6.26,0.19117821278770292,-0.0577666699112968,72.29225637219126
6.27,0.1749415142614037,-0.045036170387944115,71.90989488541864
6.28,0.18540948556678222,-0.05198410234101377,71.52827440927929
6.29,0.18540948556678222,-0.029414387079449905,71.10219329514312
6.3,0.20569725657968307,-0.028249022696663274,70.66425601087448
6.31,0.18132600450028782,-0.03173036439713979,70.26040521573672
6.32,0.21671617374323943,-0.02187639721104524,69.85581340996569
6.33,0.21729952818131007,0.005900579153350031,69.45196261482793
6.34,0.23875400807035216,0.006475885620801659,69.0814572981878
6.35,0.24513849830923629,0.034842919900531934,68.74503847067855
6.36,0.2776118953618347,0.052220125507147774,68.62128969492073
6.37,0.2758618320476229,0.08231307918923293,68.98067985206167
6.38,0.3274886998168737,0.12746726116024404,70.18185808860902
6.39,0.32807205425494435,0.17145607874846852,72.70722232682823
6.4,0.37389778622338166,0.20619573851381684,76.46785129072566
6.41,0.3855000578250087,0.26350511354072903,80.9917212069018
6.42,0.4318767356516238,0.3132912501471199,85.42592883645102
6.43,0.45741469660716033,0.35902073858558264,88.83828280270674
6.44,0.506124792186058,0.34395951029665667,91.15097698917451
6.45,0.45333121554066597,0.2582978524378976,92.52036463947647
6.46,0.391852139484,0.1448297153189765,93.15985681599736
6.47,0.3002330841270181,0.04236615832105322,93.30583591075357
6.48,0.2573241243489339,-0.034621648182281306,93.04796421037203
6.49,0.20916497462821404,-0.06645527271460472,92.52036463947647
6.5,0.20799826575207278,-0.0815017495556473,91.8801314523223
6.51,0.1749415142614037,-0.10119493247995304,91.12800565954282
6.52,0.1981460574646577,-0.09424700052688337,90.34253438826572
6.53,0.1732238595270846,-0.09771359077947651,89.63561024411632
6.54,0.1888772036153132,-0.1000295680971664,89.02946354609306
6.55,0.17205715065094335,-0.09828889724692814,88.490007805065
6.56,0.19989612077886956,-0.094822306994335,87.92906275567182
6.57,0.1749415142614037,-0.09656297784457325,87.34514637664697
6.58,0.19584504829226795,-0.09424700052688337,86.68268287049439
6.59,0.20106282965501082,-0.08555839772357544,85.9083267587165
6.6,0.20974832906628466,-0.08092644308819567,84.90944442505467
6.61,0.18132600450028782,-0.08729906857381371,83.62971906137962
6.62,0.20686396545582433,-0.09134096529385848,82.00171870006284
6.63,0.22715173646872516,-0.0658799662471531,80.1158466383645
6.64,0.2491895707958379,-0.06471460186436646,78.26406106579708
6.65,0.24860621635776725,-0.06182331807922495,76.8161262883674
6.66,0.2944319483262046,-0.04272019307025422,75.9402517198301
6.67,0.3118353557286451,-0.01783450049100047,75.48008411656305
6.68,0.3234376273302721,-0.03808823843487445,75.36745050030444
6.69,0.27356082287523315,-0.05604075050894192,75.51342959506066
6.7,0.23817065363228151,-0.09713828431202488,75.72684065744538
6.71,0.20164618409308147,-0.09713828431202488,75.9402517198301
6.72,0.20222953853115208,-0.10060487456461803,76.10846113358473
6.73,0.17610822313754496,-0.10466152273254617,76.18700826071245
6.74,0.18829384917724257,-0.11507604493820899,76.27667054733935
6.75,0.1708904417748021,-0.10697750005023607,76.32187219596945
6.76,0.19351163053998544,-0.10408621626509455,76.33298735546866
6.77,0.17380721396515522,-0.11392543200330572,76.29964187697104
6.78,0.12334705507204564,-0.1498157047035573,76.24332506884174
6.79,0.36401316935607375,0.08405375003947119,76.13069145258314
6.8,0.9840217112854761,0.506048419639182,75.9402517198301
6.81,1.0663719127931135,0.5726217039368537,75.67052384931608
6.82,0.40578782883790954,0.03080102318048716,75.39042182993613
6.83,0.2103316835043553,-0.10871817090047432,75.07549231079201
6.84,0.1969793485885164,-0.08672376210636208,74.67164151565426
6.85,0.2004794752169402,-0.07977583015329241,74.24481939088481
6.86,0.21266510125663782,-0.07686979492026753,73.84096859574706
6.87,0.18946055805338383,-0.07745985283560253,73.4371178006093
6.88,0.2027804843893299,-0.0710872273499845,73.01029567583986
6.89,0.22310066398212355,-0.05719136344384518,72.5167825940752
6.9,0.24685615304355538,-0.046201534770730746,72.02252850167724
6.91,0.23411958114567993,-0.03114030648180479,71.56236089841019
6.92,0.2317861633933974,-0.03808823843487445,71.10219329514312
6.93,0.21788288261938069,-0.02535773891152176,70.61905436224438
6.94,0.2619585512736061,-0.012037181472834063,70.18185808860902
6.95,0.23875400807035216,0.00011801158306700062,69.85581340996569
6.96,0.28341303116264827,0.03311700049817705,69.62017202858256
6.97,0.2804962589722951,0.04584750002152974,69.62017202858256
6.98,0.3077842832420435,0.07768112455385316,70.11442612098051
6.99,0.31880320040559984,0.12283530652486427,71.61867770653949
7.0,0.35937874243140155,0.1679894884958754,74.52566242089804
7.01,0.3709810140330285,0.21718556718693127,78.61159505280553
7.02,0.42840901760309286,0.27391963574639183,83.18066661761176
7.03,0.45333121554066597,0.3387522491938253,87.18805212239154
7.04,0.5113425735488009,0.38043984091224325,90.10689300688259
7.05,0.5049580833099168,0.3601713515204859,91.9705347495825
7.06,0.4881380303455469,0.25134992048482796,93.05907936987124
7.07,0.39130119362582216,0.13324982873052707,93.50813181363908
7.08,0.32865540869301496,0.023263033312082498,93.4740453245082
7.09,0.2538239977205101,-0.03636231903251957,93.18282814562905
7.1,0.2317861633933974,-0.08266711393843393,92.69968921273029
7.11,0.20453054770354182,-0.1000295680971664,92.07131219570861
7.12,0.21149839238049656,-0.10871817090047432,91.35253188142674
7.13,0.18946055805338383,-0.11739202225589887,90.65672289677656
7.14,0.21960053735369978,-0.10755280651768769,90.06169135825249
7.15,0.19526169385419734,-0.10582688711533281,89.53409178735693
7.16,0.20569725657968307,-0.11103414821816421,89.01760737596057
7.17,0.19176156722577353,-0.10871817090047432,88.4566623265674
7.18,0.2103316835043553,-0.10177023894740465,87.86163078804333
7.19,0.20799826575207278,-0.10177023894740465,87.14359148439473
7.2,0.20453054770354182,-0.11507604493820899,86.26771691585743
7.21,0.19409498497805608,-0.09887895516226314,85.11174032794018
7.22,0.21788288261938069,-0.10408621626509455,83.57340225325032
7.23,0.21091503794242594,-0.10871817090047432,81.66529987255359
7.24,0.24222172611888312,-0.09250632967664511,79.64456387559825
7.25,0.25615741547279264,-0.06993661441508124,77.84835410052683
7.26,0.2810796134103657,-0.06298868246201159,76.50119676922328
7.27,0.28571404033503794,-0.060082647228986694,75.69349517894777
7.28,0.3077842832420435,-0.043885557453040853,75.37856565980366
7.29,0.31935414626377767,-0.051408795873562146,75.35633534080524
7.3,0.29151517613585143,-0.06413929539691483,75.48008411656305
7.31,0.2277350909067958,-0.10755280651768769,75.63717837081848
7.32,0.2201838917917704,-0.11970799957358876,75.79427262507389
7.33,0.18946055805338383,-0.12087336395637538,75.9291365603309
7.34,0.20106282965501082,-0.1237646477415169,76.00768368745861
7.35,0.17439056840322587,-0.1289719088443483,76.04102916595623
7.36,0.19062726692952509,-0.13013727322713492,76.05214432545543
7.37,0.17439056840322587,-0.12723123799411004,76.04102916595623
7.38,0.1969793485885164,-0.12550531859175515,76.01879884695782
7.39,0.10536029323153452,-0.15965492044176846,75.9402517198301
7.4,0.30370080217554907,-0.004513943052312773,75.8165029440723
7.41,0.7955334106288766,0.4441070899768901,75.59197672218838
7.42,1.2734303297282947,0.5766783521047819,75.30001853267594
7.43,0.5310469901236311,0.1129960907866531,74.99694518366431
7.44,0.24630520718537754,-0.1527069884886988,74.67164151565426
7.45,0.16567266041205922,-0.11218476115306747,74.30113619901412
7.46,0.20569725657968307,-0.1052368291999978,73.85208375524627
7.47,0.19117821278770292,-0.09076565882640686,73.3919161519792
7.48,0.1964284027303386,-0.09771359077947651,72.90951822971374
7.49,0.19584504829226795,-0.08844968150871696,72.4374944563142
7.5,0.20799826575207278,-0.08209180747098231,71.96621169354795
7.51,0.2004794752169402,-0.06703057918205635,71.5171592497801
7.52,0.21729952818131007,-0.06645527271460472,71.09107813564393
7.53,0.21554946486709817,-0.04561147685539574,70.63091053237687
7.54,0.23236951783146803,-0.03925360281766108,70.18185808860902
7.55,0.21788288261938069,-0.03173036439713979,69.72094947470868
7.56,0.23933736250842277,-0.011461875005382436,69.31709867957092
7.57,0.24455514387116564,0.011107840256181433,69.00291017106008
7.58,0.278778604237976,0.039474874535911704,68.91324788443318
7.59,0.28863081252539113,0.07999710187154305,69.29486836057252
7.6,0.3274886998168737,0.11588737457179461,70.56347856474837
7.61,0.3367575536662182,0.15872557922511582,73.23482189772379
7.62,0.38316664007272616,0.2293555116907157,77.23109224300435
7.63,0.40403776552369763,0.284348909399938,81.9461429025668
7.64,0.4556646332929485,0.3364362718761354,86.25660175635822
7.65,0.46493348714229293,0.37753380567921835,89.43331434123081
7.66,0.5101758646726596,0.37580788627686346,91.53259746531386
7.67,0.46551684158036355,0.2912820899051243,92.6774588937319
7.68,0.4168067460014659,0.16161686301025735,93.18282814562905
7.69,0.33387319005575783,0.052220125507147774,93.23840394312506
7.7,0.27994531311411724,-0.04272019307025422,92.96941708324432
7.71,0.23236951783146803,-0.0815017495556473,92.49813432047806
7.72,0.22135060066791165,-0.10351090979764292,91.89124661182151
7.73,0.20106282965501082,-0.10466152273254617,91.1732073081729
7.74,0.21379940155288626,-0.12433995420896853,90.45442699389103
7.75,0.1830760678144997,-0.13013727322713492,89.82604997686936
7.76,0.2027804843893299,-0.1185573866386855,89.27622008697539
7.77,0.1871271403011013,-0.11392543200330572,88.74862051607982
7.78,0.20106282965501082,-0.12087336395637538,88.20990578568505
7.79,0.1865437858630307,-0.11913269310613712,87.5919029175293
7.8,0.22076724622984104,-0.10755280651768769,86.89609393287911
7.81,0.19989612077886956,-0.11160945468561584,86.0431906939735
7.82,0.21846623705745133,-0.11739202225589887,84.92055958455387
7.83,0.1865437858630307,-0.11798208017123386,83.4385383179933
7.84,0.2317861633933974,-0.10871817090047432,81.60898306442428
7.85,0.23700394475614026,-0.09887895516226314,79.54378642947214
7.86,0.27297746843716253,-0.08035113662074404,77.6467992082746
7.87,0.27064405068488,-0.07918577223795742,76.19812342021164
7.88,0.2845797400387895,-0.07166253381743613,75.32298986230762
7.89,0.3153030737771761,-0.0421448866028026,74.94136938616828
7.9,0.3448921072193142,-0.049668125023323885,74.91839805653659
7.91,0.2746951231714816,-0.07861046577050579,75.0532619917936
7.92,0.2335362267076093,-0.12144867042382701,75.52454475455987
7.93,0.19234492166384418,-0.12608062505920678,76.02991400645702
7.94,0.20799826575207278,-0.1266559315266584,76.23220990934254
7.95,0.1865437858630307,-0.14055179543279775,76.20997959034413
7.96,0.20453054770354182,-0.11739202225589887,76.05214432545543
7.97,0.19062726692952509,-0.13534453432996635,75.9291365603309
7.98,0.20394719326547117,-0.11681671578844724,75.8839349117008
7.99,0.16914037846059018,-0.14055179543279775,75.8839349117008
8.0,0.12798148199671788,-0.1608202848245551,75.8728197522016
8.01,0.3176364915294586,0.041215545386149965,75.8165029440723
8.02,0.8558457778094013,0.49678451036842247,75.65940868981689
8.03,1.1881633560303042,0.588833545160683,75.39042182993613
8.04,0.457998051045231,0.028485045862797275,75.019916513296
8.05,0.2219339551059823,-0.16834352324507637,74.60420954802575
8.06,0.17785828645175683,-0.11970799957358876,74.16627226375711
8.07,0.20164618409308147,-0.09771359077947651,73.74019114962094
8.08,0.18829384917724257,-0.09771359077947651,73.29113870585309
8.09,0.19526169385419734,-0.08092644308819567,72.84208626208523
8.1,0.1865437858630307,-0.09539761346178663,72.40414897781659
8.11,0.1969793485885164,-0.07686979492026753,71.95509653404874
8.12,0.20744731989389495,-0.06703057918205635,71.49492893078168
8.13,0.19117821278770292,-0.06413929539691483,71.01253100851622
8.14,0.21960053735369978,-0.04909281855587226,70.54050723511668
8.15,0.20799826575207278,-0.04561147685539574,70.05810931285122
8.16,0.2236840184201942,-0.03808823843487445,69.62017202858256
8.17,0.22310066398212355,-0.005679307435099405,69.2052060739456
8.18,0.2596251335213236,0.01516448842410958,68.89027655480147
8.19,0.2619585512736061,0.03889956806846008,68.77838394917616
8.2,0.2961820116404165,0.07884648893663979,69.092572457687
8.21,0.31241871016671574,0.12109463567462601,70.21520356710663
8.22,0.340257680294642,0.16914010143077865,72.70722232682823
8.23,0.34197533502896105,0.21718556718693127,76.60271522598268
8.24,0.3982366297228841,0.27391963574639183,81.31702487491185
8.25,0.41447332824918337,0.3260217496704726,85.79643415309117
8.26,0.486387967031335,0.39317034043559596,89.18655780034847
8.27,0.4713179773811771,0.3561294548004411,91.40884868955604
8.28,0.4585489969034088,0.2791268968492232,92.7108043722295
8.29,0.3703976595949579,0.14425440885152488,93.26137527275675
8.3,0.293848593888134,0.0342676134330803,93.27249043225596
8.31,0.24108742582263468,-0.04040421575256434,92.92421543461423
8.32,0.21496611042902752,-0.09019035235895523,92.39661586371867
8.33,0.18596043142496005,-0.1133501255358541,91.77935400619619
8.34,0.17785828645175683,-0.1289719088443483,91.0383433729159
8.35,0.1714737962128727,-0.11507604493820899,90.2528721016388
8.36,0.17785828645175683,-0.11970799957358876,89.56817827648781
8.37,0.16972373289866083,-0.11450073847075735,88.95017540833206
8.38,0.18771049473917195,-0.10640219358278444,88.36700003994048
8.39,0.17785828645175683,-0.12144867042382701,87.78308366091561
8.4,0.17669157757561557,-0.11507604493820899,87.14359148439473
8.41,0.14885260744768936,-0.11913269310613712,86.40258085111444
8.42,0.16625601485012984,-0.11507604493820899,85.50447596357874
8.43,0.1848261311287116,-0.10640219358278444,84.3144128865306
8.44,0.19176156722577353,-0.11276006762051909,82.72049901434471
8.45,0.19176156722577353,-0.10177023894740465,80.73384950652027
8.46,0.2143827559909569,-0.0815017495556473,78.63456638243721
8.47,0.2416383716808125,-0.0635639889294632,76.714607831608
8.48,0.2242673728582648,-0.08729906857381371,75.33410502180683
8.49,0.24513849830923629,-0.06645527271460472,74.53677758039724
8.5,0.2804962589722951,-0.050243431490775516,74.24481939088481
8.51,0.3002330841270181,-0.061248011611773324,74.29002103951491
8.52,0.2538239977205101,-0.0658799662471531,74.50343210189963
8.53,0.20974832906628466,-0.10408621626509455,74.76130380228118
8.54,0.18015929562414654,-0.12261403480661365,74.99694518366431
8.55,0.15640380656271474,-0.11681671578844724,75.16589560805221
8.56,0.16103823348738697,-0.1341791699471797,75.23332757568072
8.57,0.1592881701731751,-0.12723123799411004,75.24444273517992
8.58,0.1592881701731751,-0.14286777275048762,75.24444273517992
8.59,0.13666698140799172,-0.13302855701227645,75.24444273517992
8.6,0.1732238595270846,-0.12493001212430353,75.22147140554823
8.61,0.07985474085589082,-0.15039101117100892,75.17701076755141
8.62,0.27994531311411724,0.019796443059489355,75.0532619917936
8.63,0.8053856189162918,0.4597436247332677,74.86282225904057
8.64,1.2206367530829025,0.5077890904894203,74.61532470752496
8.65,0.4388445803285786,0.020371749526940982,74.29002103951491
8.66,0.17610822313754496,-0.1660275459273865,73.91951572287478
8.67,0.15290367993429096,-0.11218476115306747,73.52678008723622
8.68,0.1749415142614037,-0.09134096529385848,73.09995796246677
8.69,0.15465374324850284,-0.08381772687333719,72.68499200782982
8.7,0.16567266041205922,-0.08324242040588556,72.24705472356116
8.71,0.15812146129703383,-0.08498309125612383,71.79800227979332
8.72,0.1476858985715481,-0.094822306994335,71.38303632515635
8.73,0.14130140833266397,-0.07977583015329241,70.95621420038691
8.74,0.17844164088982747,-0.044460863920492484,70.52939207561747
8.75,0.16683936928820048,-0.032880977332043045,70.12554128047971
8.76,0.18946055805338383,-0.027673716229211644,69.72094947470868
8.77,0.1848261311287116,-0.017259194023548842,69.27263804157411
8.78,0.2004794752169402,0.00011801158306700062,68.85693107630387
8.79,0.19234492166384418,0.0035846018356601437,68.50865607866213
8.8,0.23295287226953865,0.04295621623638823,68.36267698390591
8.81,0.24397178943309503,0.07304916991847338,68.56497288679144
8.82,0.2758618320476229,0.11068011346896321,69.41787612569705
8.83,0.28571404033503794,0.15698490837487758,71.5845912174086
8.84,0.3379242625423594,0.2085117158315067,75.23332757568072
8.85,0.34139198059089043,0.2646557264756323,79.86909009748217
8.86,0.39706992084674286,0.3265970561379242,84.51670878941611
8.87,0.40345441108562696,0.3561294548004411,88.18693445605336
8.88,0.43592780813822546,0.3451248746794433,90.61226225877974
8.89,0.3982366297228841,0.24786857878435142,92.08242735520783
8.9,0.32690534537880306,0.1263018967774574,92.8012076694897
8.91,0.2573241243489339,0.04295621623638823,92.92421543461423
8.92,0.20222953853115208,-0.03808823843487445,92.6322572451018
8.93,0.13666698140799172,-0.08324242040588556,92.06019703620942
8.94,0.14016710803641552,-0.09076565882640686,91.33030156242833
8.95,0.13494932667367265,-0.09945426162971477,90.44331183439184
8.96,0.12276370063397501,-0.10408621626509455,89.52297662785772
8.97,0.10477693879346389,-0.12144867042382701,88.74862051607982
8.98,0.11871262814737342,-0.10697750005023607,88.09727216942645
8.99,0.11696256483316152,-0.09945426162971477,87.48001031190398
9.0,0.10419358435539326,-0.10814286443302269,86.8627484543815
9.01,0.08562346807681151,-0.1104440903028292,86.22251526722734
9.02,0.11579585595702026,-0.1052368291999978,85.48150463394705
9.03,0.09029030358137656,-0.10814286443302269,84.55005426791374
9.04,0.11754591927123215,-0.10929347736792595,83.31553055286878
9.05,0.11174478347041865,-0.08613370419102707,81.68753019155199
9.06,0.1482692530096187,-0.08266711393843393,79.71199584322676
9.07,0.12506470980636472,-0.09713828431202488,77.62382787864291
9.08,0.1453848893991584,-0.0844077847886722,75.77204230607548
9.09,0.17727493201368622,-0.047927454173085624,74.41376981527272
9.1,0.19004391249145447,-0.051408795873562146,73.62755753336234
9.11,0.2103316835043553,-0.033456283799494675,73.40303131147841
9.12,0.23470293558375055,-0.03577226111718456,73.89728540387637
9.13,0.16858943260241238,-0.05719136344384518,74.51454726139885
9.14,0.12159699175783376,-0.10640219358278444,74.99694518366431
9.15,0.07405360505507733,-0.10814286443302269,75.25555789467913
9.16,0.09955915743072102,-0.09771359077947651,75.26667305417833
9.17,0.08448916778056306,-0.1133501255358541,75.18812592705062
9.18,0.0792713864178202,-0.11218476115306747,75.1095787999229
9.19,0.0792713864178202,-0.10119493247995304,75.0984636404237
9.2,0.06358563374969878,-0.12087336395637538,75.12069395942211
9.21,0.06128462457730907,-0.1133501255358541,75.16589560805221
9.22,0.01199117456034075,-0.1370852051802046,75.16589560805221
9.23,0.23236951783146803,0.06378526064771384,75.07549231079201
9.24,0.8262567443672633,0.45163032839741135,74.87393741853978
9.25,1.0327318068643738,0.5240009317132495,74.59309438852655
9.26,0.28863081252539113,0.01690515927434784,74.27890588001571
9.27,0.10014251186879167,-0.12782129590944505,73.94174604187317
9.28,0.06416898818776941,-0.08729906857381371,73.60532721436392
9.29,0.06011791570116781,-0.09134096529385848,73.23482189772379
9.3,0.06825246925426383,-0.06993661441508124,72.84208626208523
9.31,0.05778449794888529,-0.06762063709739136,72.41526413731579
9.32,0.08507252221863369,-0.060672705144321694,71.94398137454954
9.33,0.08040568671406864,-0.049668125023323885,71.49492893078168
9.34,0.07518790535132577,-0.050833489406110516,71.03476132751463
9.35,0.09259131275376627,-0.03636231903251957,70.59682404324597
9.36,0.09200795831569564,-0.02304176159383187,70.15888675897733
9.37,0.08040568671406864,-0.020725784276141985,69.72094947470868
9.38,0.09087365801944719,-0.013202545855620694,69.29486836057252
9.39,0.10244352104118137,0.013423817573871321,68.92436304393237
9.4,0.14710254413347745,0.03195163611539042,68.64352001391914
9.41,0.14710254413347745,0.05568671575974092,68.52051224879462
9.42,0.15698716100078539,0.08926101114230259,68.77838394917616
9.43,0.17669157757561557,0.13267452226307544,69.80023761246967
9.44,0.19989612077886956,0.17436211398149343,72.15739243693426
9.45,0.24338843499502438,0.2235581926725493,76.00768368745861
9.46,0.27994531311411724,0.27217896489615356,80.82351179314718
9.47,0.29559865720234585,0.3242810788202343,85.50447596357874
9.48,0.3332898356176872,0.3532234195674162,89.10801067322076
9.49,0.3622955146217547,0.34801615846458483,91.49851097618296
9.5,0.32982211756915625,0.2420860112140684,92.90198511561582
9.51,0.22481831871644264,0.12746726116024404,93.53036213263749
9.52,0.16045487904931635,0.02963565879770053,93.5414772921367
9.53,0.10130922074493293,-0.025933045378973386,93.15985681599736
9.54,0.06416898818776941,-0.07282789820022276,92.55371011797408
9.55,0.04271450829872732,-0.08729906857381371,91.8126994846938
9.56,0.054316779900354314,-0.0815017495556473,90.88124911866048
9.57,0.0560668432145662,-0.0815017495556473,89.91571226349627
9.58,0.023010091723897112,-0.09308163614409674,89.13024099221917
9.59,0.02126002840968522,-0.094822306994335,88.50186397519748
9.6,0.027644518648569347,-0.09076565882640686,87.95129307467023
9.61,0.015458892608871722,-0.09019035235895523,87.39034802527706
9.62,0.017792310361154248,-0.10466152273254617,86.78420132725378
9.63,0.015458892608871722,-0.09771359077947651,86.0883923426036
9.64,0.02994552782095906,-0.08844968150871696,85.23474809306471
9.65,0.03169559113517095,-0.08324242040588556,84.12323214314429
9.66,0.03461236332552411,-0.07571918198536427,82.6197215682186
9.67,0.03749672693598445,-0.07571918198536427,80.72199333638778
9.68,0.05778449794888529,-0.07861046577050579,78.58936473380712
9.69,0.08390581334249243,-0.05835672782663181,76.57974389635099
9.7,0.0972257396784385,-0.04677684123818237,75.07549231079201
9.71,0.08390581334249243,-0.03808823843487445,74.17812843388958
9.72,0.1204302828816925,-0.032880977332043045,73.3919161519792
9.73,0.12798148199671788,-0.03982890928511271,73.03252599483827
9.74,0.0873735313910234,-0.043885557453040853,73.1896202490937
9.75,0.03749672693598445,-0.08498309125612383,73.51566492773702
9.76,0.01429218373273046,-0.10119493247995304,73.90840056337557
9.77,0.007356747635668514,-0.08672376210636208,74.24481939088481
9.78,0.011407820122270118,-0.094822306994335,74.46934561276875
9.79,-0.031501139655814074,-0.11103414821816421,74.54789273989645
9.8,-0.006578941718241005,-0.09597291992923826,74.55974891002893
9.81,-0.014681086691444214,-0.1052368291999978,74.53677758039724
9.82,-0.00891235947052353,-0.10582688711533281,74.50343210189963
9.83,-0.0726924446995792,-0.13534453432996635,74.42488497477193
9.84,0.08562346807681151,-0.025933045378973386,74.30113619901412
9.85,0.6110961824588789,0.41169815897711504,74.11069646626109
9.86,1.1017620820360652,0.5523679659929798,73.87505508487796
9.87,0.3744811406614523,0.1552589889725227,73.58309689536551
9.88,0.045631280489080474,-0.11913269310613712,73.23482189772379
9.89,-0.000194451479356877,-0.07225259173277113,72.84208626208523
9.9,0.023593446161967745,-0.07225259173277113,72.41526413731579
9.91,0.001555611834855016,-0.0710872273499845,71.97732685304715
9.92,-0.007745650594382268,-0.07686979492026753,71.55124573891098
9.93,0.0026899121311034654,-0.06877125003229462,71.12442361414153
9.94,0.000388902958713754,-0.0658799662471531,70.68648632987289
9.95,0.004439975445315358,-0.05604075050894192,70.22631872660584
9.96,0.025311100896286826,-0.0421448866028026,69.77726628283799
9.97,0.016042247046942352,-0.03519695464973294,69.35118516870182
9.98,0.016042247046942352,-0.043885557453040853,68.90213272493396
9.99,0.045047926051009844,-0.013777852323072323,68.45308028116611
