time_s,ECG,NIBP
0.0,-0.2519305005460235,77.69667225529425
0.01,-0.2574278929404021,77.0250005381346
0.02,-0.25972680248714225,76.44501101382168
0.03,-0.2566282722284925,75.80423220946909
0.04,-0.2528300738469218,75.6517607365827
0.05,-0.24858208881490196,74.55356751357095
0.06,-0.2836654475499364,74.85851045934373
0.07,-0.3239463409123833,73.75932069075756
0.08,0.2642746452861282,73.72942432352494
0.09,1.8557697434587364,72.96607041351858
0.1,2.6918231740547345,72.44786671481975
0.11,1.4599574910634763,72.29539524193336
0.12,0.18921025095561295,71.74530208485307
0.13,0.08316055403860009,70.95205180761408
0.14,0.08256083850466789,71.40946622627324
0.15,-0.07066648041501233,70.5554266689946
0.16,-0.1277394087275612,70.1588015303751
0.17,-0.13138767822564884,69.45723344598284
0.18,-0.1321373226430641,69.27386906028941
0.19,-0.1269397880156516,69.05961176178893
0.2,-0.11704448170577009,68.90714028890255
0.21,-0.10360085848678967,68.5414080630901
0.22,-0.08545946358534025,68.51051515028306
0.23,-0.06516908802063373,68.11389001166357
0.24,-0.042279945142220964,68.14478292447062
0.25,-0.014643054286844849,67.50400412011803
0.26,0.012793931390553862,67.32063973442459
0.27,0.045328499106376374,67.01569678865181
0.28,0.08985737750084313,67.35153264723164
0.29,0.14573087474552757,66.64896801726495
0.3,0.21424837449728282,66.5273894571856
0.31,0.295859663406558,65.88661065283301
0.32,0.38801595045414133,66.1915535986058
0.33,0.4834206966438574,65.51988188144615
0.34,0.5743275763290819,65.39830332136681
0.35,0.642395289430388,65.48998551421353
0.36,0.6570383437172328,66.58817873722528
0.37,0.5891205594994098,67.68637196023704
0.38,0.4536348251252242,68.08399364443095
0.39,0.29785871518633206,67.71726487304407
0.4,0.15397696333709548,71.89777355773946
0.41,0.03633276609739319,80.9623521026713
0.42,-0.04987634190536232,92.92488517801891
0.43,-0.10924817976465133,103.08765694596251
0.44,-0.14817971317575077,117.24757301290805
0.45,-0.1715186427046127,117.30836229294772
0.46,-0.18296321414381908,117.55251595868083
0.47,-0.18706127029235586,116.97252643436791
0.48,-0.18861053542168074,116.39253691005499
0.49,-0.18801081988774854,114.59277560265097
0.5,-0.18416264521168352,112.88369994251924
0.51,-0.17716596398247436,108.33646248643701
0.52,-0.1745671966687681,103.7284357503151
0.53,-0.17561669885314948,99.54693052004531
0.54,-0.17546676996966643,97.41133335406148
0.55,-0.18066430459707894,95.39631820258256
0.56,-0.18846060653819768,95.33552892254289
0.57,-0.19395799893257631,94.14565350668443
0.58,-0.20020503574437018,93.62645326241118
0.59,-0.20950062652031948,92.1924241808196
0.6,-0.21909607506323486,91.27659879792687
0.61,-0.2262926614704214,89.41505166490876
0.62,-0.23283955604918138,86.94361864034511
0.63,-0.24123557352423236,83.86130317866149
0.64,-0.24718275256906014,81.5413450814098
0.65,-0.2519305005460235,79.40574791542596
0.66,-0.25587862781107723,78.48992253253323
0.67,-0.25697810628995293,77.69667225529425
0.68,-0.255278912277145,78.00161520106703
0.69,-0.2577277507073682,78.12419030672078
0.7,-0.26197573573938804,78.794865478306
0.71,-0.26307521421826374,79.34495863538629
0.72,-0.2626254275678146,79.5273264755053
0.73,-0.26322514310174683,79.19149061692549
0.74,-0.26352500086871294,79.64990158115907
0.75,-0.26197573573938804,80.04652671977856
0.76,-0.26322514310174683,81.93896676560371
0.77,-0.2653741237650039,83.31220656715561
0.78,-0.2662736970659022,85.96700397741269
0.79,-0.2662736970659022,85.81453250452631
0.8,-0.26457450305309427,86.08858253749203
0.81,-0.2554288411606281,85.7228503116796
0.82,-0.2435344830709725,87.52360816465803
0.83,-0.23104040944738477,85.44780373313944
0.84,-0.22704230588783667,83.67793879296805
0.85,-0.261825806855905,82.0914382384901
0.86,-0.2952599478726258,80.7181984369382
0.87,-0.29021234212869634,79.6797979483917
0.88,-0.28196625353712845,79.22238352973254
0.89,-0.2870138592810579,78.5507118125729
0.9,-0.2899124843617303,78.88654767115271
0.91,-0.28806336146543926,78.12419030672078
0.92,-0.2839653053169025,77.69667225529425
0.93,-0.2768186952042103,76.56758611947545
0.94,-0.2677729859007328,76.47590392662873
0.95,-0.28686393039757485,75.28602851077027
0.96,-0.35708062416213804,75.25513559796322
0.97,0.02104001998212178,74.49178168795686
0.98,1.4685034374220103,73.97357798925803
0.99,2.6832772276962005,73.75932069075756
1.0,1.803744420890117,73.57695285063855
1.01,0.3219472891326093,72.50865599485942
1.02,0.036932481631325405,72.08113794343288
1.03,0.08500967693489109,71.37956985904061
1.04,-0.06486923025366763,71.31878057900094
1.05,-0.14528108809507842,70.64710886184132
1.06,-0.15167805379035534,70.89126252757441
1.07,-0.1475300213473242,70.21959081041477
1.08,-0.13918398016676758,70.09801225033543
1.09,-0.12878891091194258,69.76217639175562
1.1,-0.11579507434341131,69.70138711171595
1.11,-0.09980266010521899,68.99882248174926
1.12,-0.07981214230747857,68.84635100886288
1.13,-0.05737278607951497,68.60219734312977
1.14,-0.03278444918829427,68.57130443032273
1.15,-0.005347463510895559,67.44221829450393
1.16,0.028836321923240538,67.74815778585112
1.17,0.07186591148287677,67.41232192727131
1.18,0.12194215856621649,67.32063973442459
1.19,0.18401271632820046,66.61907165003232
1.2,0.26502428970354347,66.49649654437856
1.21,0.36087882254370873,66.22144996583842
1.22,0.45928214640308584,65.82482482721893
1.23,0.5511385756837031,65.79492845998631
1.24,0.6250035389463539,66.83233240295839
1.25,0.6480426107082496,67.38142901446426
1.26,0.5923690186415427,67.68637196023704
1.27,0.4629304159011735,67.47311120731098
1.28,0.3009072691504875,67.6564755930044
1.29,0.14877942870968297,67.44221829450393
1.3,0.02653741237650039,70.43384810891526
1.31,-0.0662185902050151,76.78084687240151
1.32,-0.13288696706047937,87.67607963754442
1.33,-0.17531684108618337,99.18119829423287
1.34,-0.2029537319415595,99.66950562569907
1.35,-0.22064534019255974,116.60679420855546
1.36,-0.22919128655109378,117.58340887148788
1.37,-0.22994093096850904,117.40004448579444
1.38,-0.22489332522457958,116.82005496148152
1.39,-0.22169484237694112,114.95850782846341
1.4,-0.21879621729626875,113.5852680269115
1.41,-0.21134974941661047,109.09881985086895
1.42,-0.20340351859200864,105.07078263905996
1.43,-0.19960532021043798,97.5937011941805
1.44,-0.20265387417459338,96.15967211258892
1.45,-0.20645207255616405,95.0913752568098
1.46,-0.20920076875335336,94.4505964524572
1.47,-0.21729692846143822,93.04646373809825
1.48,-0.2284416421336785,92.1924241808196
1.49,-0.23848687732704307,90.63581999357427
1.5,-0.25103092724512516,89.32336947206204
1.51,-0.2615259490889389,86.63867569457233
1.52,-0.26717327036680055,84.5319783502467
1.53,-0.27222087611073,81.7854987471429
1.54,-0.27481964342443627,79.92395161412479
1.55,-0.2766187900262329,78.1540866739534
1.56,-0.282615945365555,77.69667225529425
1.57,-0.289162839944315,76.96421125809493
1.58,-0.29281110944240263,77.6657793424872
1.59,-0.29281110944240263,77.6657793424872
1.6,-0.2925112516754365,78.70318328545929
1.61,-0.293860611626784,79.37485500261892
1.62,-0.293860611626784,81.02314138271097
1.63,-0.29281110944240263,80.9623521026713
1.64,-0.295709734523075,82.85379560292203
1.65,-0.297708786302849,84.1054568443946
1.66,-0.2971090707689168,86.11947545029908
1.67,-0.29555980563959194,87.70597600477704
1.68,-0.2940605168047614,88.0727047761639
1.69,-0.295859663406558,87.67607963754442
1.7,-0.29785871518633206,89.5984160506022
1.71,-0.29800864406981514,88.68259066770945
1.72,-0.29785871518633206,87.24856158611787
1.73,-0.2981585729532982,84.5937641758608
1.74,-0.2935607538598179,83.18963146150185
1.75,-0.2864141437471257,81.32808432848374
1.76,-0.27327037829511136,80.38236257835838
1.77,-0.2587772528917496,79.37485500261892
1.78,-0.24488384302232,78.76496911107337
1.79,-0.2577277507073682,77.75746153533392
1.8,-0.29950793290464567,77.69667225529425
1.81,-0.3125017694731769,76.99510417090198
1.82,-0.30075734026700446,76.84163615244118
1.83,-0.29890821737071344,76.17096098085597
1.84,-0.3001576247330722,75.98759659516253
1.85,-0.29785871518633206,74.9192997393834
1.86,-0.29511001898914274,74.40109604068456
1.87,-0.29021234212869634,73.42448137775216
1.88,-0.28276587424903804,73.30190627209839
1.89,-0.27571921672533456,72.23360941631927
1.9,-0.31674975450519677,72.60033818770613
1.91,-0.346685554907313,71.80708791046716
1.92,0.3094532155090215,71.71540571762044
1.93,1.9370811746010455,70.70789814188099
1.94,2.656539910141723,70.52453375618755
1.95,1.3400143842770338,69.85385858460234
1.96,0.13063803380823355,69.70138711171595
1.97,0.060271411160187326,69.4263405331758
1.98,0.04727757459165607,69.27386906028941
1.99,-0.10450043178768798,68.5414080630901
2.0,-0.15317734262518587,68.44972587024338
2.01,-0.15027871754451352,68.11389001166357
2.02,-0.14922921536013214,67.99231145158423
2.03,-0.14283224966485522,67.86973634593046
2.04,-0.13013827086329005,67.6564755930044
2.05,-0.11414585662509773,66.98480387584478
2.06,-0.09475505436128953,66.89312168299806
2.07,-0.07401489214613385,66.64896801726495
2.08,-0.047927266420082625,66.9240145958051
2.09,-0.016941963833584997,66.61907165003232
2.1,0.011594500322689437,67.28974682161754
2.11,0.04317951844311928,65.91650702006564
2.12,0.0859092502357894,66.06897849295203
2.13,0.142232534130923,65.5507747942532
2.14,0.21314889601840709,65.70324626713959
2.15,0.295709734523075,65.03157454997995
2.16,0.38816587933762436,64.93989235713323
2.17,0.48826839720980947,64.63494941136045
2.18,0.5825736649206499,64.87910307709356
2.19,0.6521406668567864,65.00167818274733
2.2,0.6713815402371116,65.5507747942532
2.21,0.6135589675071474,66.95391096303773
2.22,0.4811217870971173,67.32063973442459
2.23,0.31769930410058944,67.04559315588445
2.24,0.1709189271706805,71.95955938335354
2.25,0.05357458769794429,80.59562333128443
2.26,-0.03568307426896663,93.44408542229216
2.27,-0.09780360832544495,104.00248578328083
2.28,-0.13548573437418562,104.46089674751441
2.29,-0.15837487725259838,104.21674308178132
2.3,-0.1696695198083217,104.52168602755408
2.31,-0.1709189271706805,114.68346124992327
2.32,-0.1718185004715788,114.01278607833805
2.33,-0.17256814488899408,109.8621737608753
2.34,-0.1702692353422539,105.80324363625927
2.35,-0.1647718429478753,100.61522737582445
2.36,-0.16237298081214646,97.34954752844739
2.37,-0.1617232889837199,95.39631820258256
2.38,-0.16112357344978767,94.08486422664475
2.39,-0.16327255411304478,92.95577809082596
2.4,-0.1652716058928188,92.49736712659238
2.41,-0.17196842935506185,92.06984907516585
2.42,-0.18401271632820046,90.78829146646066
2.43,-0.19440778558302546,89.4459445777158
2.44,-0.20325358970852558,88.43843700197635
2.45,-0.21239925160099182,85.84442887175894
2.46,-0.22309417862278294,83.18963146150185
2.47,-0.22979100208502598,80.412258945591
2.48,-0.2287414999006446,78.76496911107337
2.49,-0.22919128655109378,77.84914372818064
2.5,-0.23378910564457406,77.23925783663509
2.51,-0.23698758849221252,76.93331834528789
2.52,-0.23818701956007696,77.54420078240786
2.53,-0.23938645062794137,77.6657793424872
2.54,-0.2404859291068171,78.03250811387406
2.55,-0.24003614245636795,77.75746153533392
2.56,-0.23893666397749222,78.00161520106703
2.57,-0.23958635580591878,77.6657793424872
2.58,-0.2432346253040064,78.82575839111304
2.59,-0.24458398525535388,79.31406572257924
2.6,-0.2418352890581646,81.08393066275065
2.61,-0.2398862135728849,82.94547779576874
2.62,-0.24093571575726627,83.09794926865513
2.63,-0.24153543129119848,82.94547779576874
2.64,-0.24078578687378321,89.17089799917565
2.65,-0.2380370906765939,87.79765819762376
2.66,-0.23468867894547238,87.98102258331718
2.67,-0.23024078873547515,86.2111576431458
2.68,-0.2238438230401982,84.04466756435492
2.69,-0.20875098210290421,82.15222751852977
2.7,-0.19135923161887006,81.2065057684044
2.71,-0.17931494464573144,79.61900866835202
2.72,-0.19990517797740406,79.16159424969287
2.73,-0.24413419860490473,78.21487595399307
2.74,-0.25697810628995293,78.03250811387406
2.75,-0.24643310815164488,77.78835444814096
2.76,-0.24443405637187082,77.57409714964048
2.77,-0.24628317926816182,76.90342197805526
2.78,-0.24778246810299234,76.26264317370267
2.79,-0.2491818043488342,75.74344292942942
2.8,-0.24583339261771267,75.560078543736
2.81,-0.23878673509400916,74.49178168795686
2.82,-0.23238976939873224,74.30941384783786
2.83,-0.2746697145409532,73.82110651637164
2.84,-0.2946602323386936,73.18032771201905
2.85,0.4007099292557065,72.60033818770613
2.86,2.0407320093823293,72.38608088920566
2.87,2.6832772276962005,71.44035913908029
2.88,1.3177249569325533,71.62372352477372
2.89,0.15562618105540907,70.98294472042113
2.9,0.11139716042790843,70.95205180761408
2.91,0.08910773308342787,70.43384810891526
2.92,-0.060271411160187326,70.1588015303751
2.93,-0.10834860646375301,69.39544762036876
2.94,-0.1127465203792559,68.93803320170959
2.95,-0.11289644926273895,68.99882248174926
2.96,-0.1055999102665637,68.84635100886288
2.97,-0.093255765526459,68.57130443032273
2.98,-0.0782628771781537,68.44972587024338
2.99,-0.057072928312548864,68.14478292447062
3.0,-0.03278444918829427,68.48061878305043
3.01,-0.010544998138308065,67.38142901446426
3.02,0.011594500322689437,67.62558268019737
3.03,0.04118046666334524,67.35153264723164
3.04,0.07841280606163675,67.25985045438492
3.05,0.1200930356699255,66.61907165003232
3.06,0.17576662773663254,66.83233240295839
3.07,0.24858208881490196,66.22144996583842
3.08,0.33509105458462357,66.09987140575907
3.09,0.4318451607256871,65.85571774002597
3.1,0.5322475363648383,65.42819968859943
3.11,0.6233043449335459,65.15414965563372
3.12,0.6861745234074395,65.64245698709992
3.13,0.6925714891027164,66.31313215868514
3.14,0.617207237005235,67.59568631296474
3.15,0.4722759829716171,71.31878057900094
3.16,0.3070043770787983,80.53483405124476
3.17,0.16052385791585547,91.97916342789355
3.18,0.045478427989859425,102.72092817457565
3.19,-0.04013096447896387,110.07543451380135
3.2,-0.09920294457128677,113.89021097268429
3.21,-0.13473608995677033,114.92761491565636
3.22,-0.15502646552147686,116.0875939642822
3.23,-0.16342248299652784,115.3551329670829
3.24,-0.1684700887404573,115.7517581057024
3.25,-0.17106885605416353,114.68346124992327
3.26,-0.16921973315787256,113.2494321683317
3.27,-0.16297269634607867,112.94448922255891
3.28,-0.15442674998754466,113.0969606954453
3.29,-0.15137819602338923,112.91359630975187
3.3,-0.14892935759316603,113.15774997548498
3.31,-0.1447813251501349,111.69282798108635
3.32,-0.14588080362901062,105.71156144341255
3.33,-0.15152812490687229,101.10353470729065
3.34,-0.16067378679933852,98.1437943512608
3.35,-0.17331778930640934,92.31400274089894
3.36,-0.1814139490144942,91.73500976216044
3.37,-0.18891039318864686,90.29998413499446
3.38,-0.19880569949852836,89.26258019202237
3.39,-0.20630214367268102,87.00440792038478
3.4,-0.2152978766816642,84.47118907020703
3.41,-0.22199470014390724,81.75560237991027
3.42,-0.22429360969064738,79.95484452693184
3.43,-0.221394984609975,78.64239400541962
3.44,-0.21849635952930266,78.39824033968651
3.45,-0.22399375192368126,78.09329739391373
3.46,-0.22979100208502598,78.45902961972618
3.47,-0.2294911443180599,78.5507118125729
3.48,-0.2276420214217689,78.76496911107337
3.49,-0.22904135766761072,78.48992253253323
3.5,-0.22904135766761072,79.92395161412479
3.51,-0.22659251923738752,80.44315185839805
3.52,-0.22689237700435363,82.36548827145582
3.53,-0.2284416421336785,84.07456393158755
3.54,-0.2284416421336785,84.37950687736031
3.55,-0.22889142878412766,84.1971390372413
3.56,-0.2276420214217689,84.44129270297441
3.57,-0.22524315928604005,84.13535321162722
3.58,-0.22474339634109652,89.99504118922168
3.59,-0.22004562465862754,88.5610121076301
3.6,-0.20690185920661322,86.88183281473101
3.61,-0.18951010872257906,85.5703788387932
3.62,-0.1764163195650591,83.55636023288871
3.63,-0.1986557706150453,82.15222751852977
3.64,-0.24168536017468153,80.6564126113241
3.65,-0.25053116430018163,80.10731599981823
3.66,-0.24278483865355724,79.49743010827268
3.67,-0.24413419860490473,78.91744058395976
3.68,-0.24503377190580306,78.794865478306
3.69,-0.2429347675370403,77.81825081537359
3.7,-0.2404859291068171,77.60499006244753
3.71,-0.23788716179311084,76.93331834528789
3.72,-0.2325396982822153,76.38422173378201
3.73,-0.22979100208502598,75.74344292942942
3.74,-0.2961595211735241,75.53018217650337
3.75,-0.22444353857413044,74.85851045934373
3.76,0.7603393444370564,74.6751460736503
3.77,2.40266033411042,74.09515654933737
3.78,2.493117427145195,73.63774213067822
3.79,0.9198137001685305,73.33279918490544
3.8,0.07766316164422149,72.87438822067186
3.81,0.1283391242614934,71.9286664705465
3.82,0.04472878357244416,72.11203085623993
3.83,-0.08620910800275551,71.47125205188733
3.84,-0.10984789529858353,71.37956985904061
3.85,-0.10789881981330385,70.31127300326149
3.86,-0.10819867758026995,70.89126252757441
3.87,-0.10160180670701562,70.18969444318215
3.88,-0.08680882353668772,70.43384810891526
3.89,-0.06971693081961967,69.82296567179529
3.9,-0.054174303231876504,69.27386906028941
3.91,-0.039981035595480816,69.09050467459598
3.92,-0.013443623218980424,69.24297614748237
3.93,0.023189000645378873,68.72477244878354
3.94,0.053874445464910395,68.90714028890255
3.95,0.08361034068904925,68.26636148454996
3.96,0.129988341979807,68.02220781881685
3.97,0.19715648178021478,67.50400412011803
3.98,0.2714712316933147,67.25985045438492
3.99,0.35613107456674536,67.07648606869148
4.0,0.45728309462331185,67.22895754157787
4.01,0.5605840953431354,67.01569678865181
4.02,0.6469931085238683,67.6564755930044
4.03,0.6982188103805781,67.80894706589079
4.04,0.6832758983267672,69.6704941989089
4.05,0.5810743760858192,73.33279918490544
4.06,0.42509836096894976,73.5460599378315
4.07,0.26502428970354347,81.99975604564338
4.08,0.12619014359823633,93.80981764810461
4.09,0.026237554609534284,103.69754283750807
4.1,-0.044878712455927214,111.20452064962015
4.11,-0.09995258898870203,114.56188268984393
4.12,-0.13658521285306133,116.05670105147516
4.13,-0.15717544618473395,116.27095834997564
4.14,-0.17136871382112964,116.4842191029017
4.15,-0.1776157506329235,115.84344029854911
4.16,-0.17426733890180202,114.83593272280964
4.17,-0.1727180737724771,112.91359630975187
4.18,-0.17166857158809576,109.77049156802859
4.19,-0.16252290969562952,104.70505041324752
4.2,-0.15332727150866893,100.8284881287505
4.21,-0.15382703445361243,98.35705510418684
4.22,-0.15837487725259838,96.9529223898279
4.23,-0.15122826713990617,95.45810402819666
4.24,-0.14787985540878468,94.87811450388374
4.25,-0.16237298081214646,93.80981764810461
4.26,-0.1739674811348359,94.0539713138377
4.27,-0.18281328526033602,93.80981764810461
4.28,-0.1918090182693192,93.26072103659874
4.29,-0.19685662401324866,91.79579904220012
4.3,-0.20385330524245782,91.2158095178872
4.31,-0.21194946495054268,90.27008776776182
4.32,-0.22199470014390724,89.75088752348857
4.33,-0.23328934269963056,79.13070133688582
4.34,-0.2349885367124385,78.85665130392009
4.35,-0.2300908598519921,78.97822986399943
4.36,-0.23208991163176612,79.22238352973254
4.37,-0.23358920046659667,79.1008049696532
4.38,-0.23378910564457406,79.06991205684615
4.39,-0.24093571575726627,78.94733695119238
4.4,-0.2453836059672635,79.16159424969287
4.41,-0.24613325038467876,79.40574791542596
4.42,-0.25118085612860824,81.08393066275065
4.43,-0.2519305005460235,82.029652412876
4.44,-0.24583339261771267,84.44129270297441
4.45,-0.23973628468940184,84.22703540447392
4.46,-0.23528839447940458,84.47118907020703
4.47,-0.2276420214217689,90.51424143349493
4.48,-0.21314889601840709,91.73500976216044
4.49,-0.20125453792875156,91.91737760227946
4.5,-0.20875098210290421,91.67322393654635
4.51,-0.24413419860490473,86.24105401037842
4.52,-0.2676230570172497,84.5319783502467
4.53,-0.2648743608200604,82.5797455699563
4.54,-0.2641247164026451,81.96886313283633
4.55,-0.2641247164026451,80.44315185839805
4.56,-0.26107616243848975,80.32057675274429
4.57,-0.25957687360365916,79.89405524689217
4.58,-0.2574278929404021,79.55821938831235
4.59,-0.25587862781107723,78.5507118125729
4.6,-0.24903187546535113,78.36834397245389
4.61,-0.2897625554782472,77.39172930952147
4.62,-0.31784923298407247,76.81173978520854
4.63,0.3510834688228159,76.07927878800925
4.64,1.9647180654564216,75.98759659516253
4.65,2.570180873255484,75.37671415804256
4.66,1.1287146111549178,75.1634534051165
4.67,-0.0036482694980876245,74.1868387421841
4.68,0.07246562701680898,73.94268507645099
4.69,0.08485974805140803,73.30190627209839
4.7,-0.06821764198478913,73.57695285063855
4.71,-0.1055999102665637,72.60033818770613
4.72,-0.10485026584914844,72.44786671481975
4.73,-0.09690403502454663,71.86787719050683
4.74,-0.0807117156083769,71.65361989200635
4.75,-0.07721337499377233,71.47125205188733
4.76,-0.06242039182344442,71.62372352477372
4.77,-0.02638748349301734,70.70789814188099
4.78,-0.0021489806632570938,70.89126252757441
4.79,0.014493125403361796,70.64710886184132
4.8,0.04377923397705149,70.49463738895493
4.81,0.0755141809809644,70.0671193375284
4.82,0.11289644926273895,70.00633005748873
4.83,0.17241821600551102,69.45723344598284
4.84,0.24703282368557708,69.27386906028941
4.85,0.33249228727091734,68.63309025593682
4.86,0.4270974127487238,68.41883295743634
4.87,0.5280995039218073,67.86973634593046
4.88,0.6367479681525263,67.62558268019737
4.89,0.731802880280782,67.80894706589079
4.9,0.7875264486419834,67.53390048735065
4.91,0.7655368790644689,67.44221829450393
4.92,0.6451439856275774,68.32715076458963
4.93,0.4760741813531878,69.4263405331758
4.94,0.30195677133486887,72.4169738020127
4.95,0.15562618105540907,80.01563380697151
4.96,0.04317951844311928,91.09423095780785
4.97,-0.045028641339410265,100.85938104155754
4.98,-0.09920294457128677,108.76298399228912
4.99,-0.13288696706047937,112.18113531255257
5.0,-0.15717544618473395,113.64605730695118
5.01,-0.16497174812585272,113.43279655402513
5.02,-0.1628227674625956,113.95100025272396
5.03,-0.16312262522956172,112.6086533639791
5.04,-0.1628227674625956,112.08945311970585
5.05,-0.15382703445361243,109.49544498948843
5.06,-0.14268232078137216,105.40661849763978
5.07,-0.12953855532935785,100.70690956867115
5.08,-0.1283391242614934,96.9529223898279
5.09,-0.13918398016676758,93.87060692814428
5.1,-0.14513115921159536,92.83320298517219
5.11,-0.1447813251501349,91.49085609642734
5.12,-0.1447813251501349,90.42255924064821
5.13,-0.15642580176731868,89.90335899637496
5.14,-0.16996937757528782,88.80516577336321
5.15,-0.18281328526033602,86.91272572753806
5.16,-0.19410792781605934,85.23454298021339
5.17,-0.20020503574437018,82.64053484999597
5.18,-0.20555249925526575,80.29068038551166
5.19,-0.2111998205331274,77.81825081537359
5.2,-0.2183464306458196,76.44501101382168
5.21,-0.21134974941661047,75.53018217650337
5.22,-0.20490280742683917,74.70603898645734
5.23,-0.21789664399537045,75.31592487800289
5.24,-0.22614273258693837,75.89591440231581
5.25,-0.2287414999006446,76.56758611947545
5.26,-0.23164012498131697,76.72005759236184
5.27,-0.22859157101716157,76.56758611947545
5.28,-0.2294911443180599,76.81173978520854
5.29,-0.23164012498131697,77.78835444814096
5.3,-0.22644259035390446,79.25327644253957
5.31,-0.2262926614704214,81.2065057684044
5.32,-0.22554301705300614,84.07456393158755
5.33,-0.21359868266885626,83.86130317866149
5.34,-0.20155439569571765,83.9529853715082
5.35,-0.19025975313999433,88.16438696901062
5.36,-0.20095468016178544,86.08858253749203
5.37,-0.24443405637187082,85.81453250452631
5.38,-0.2604764469045575,84.01377465154788
5.39,-0.24688289480209402,82.24390971137649
5.4,-0.25053116430018163,81.1447199427903
5.41,-0.2578776795908513,80.04652671977856
5.42,-0.2516306427790574,80.25978747270462
5.43,-0.25238028719647265,79.28317280977221
5.44,-0.25103092724512516,78.82575839111304
5.45,-0.2456834637342296,78.21487595399307
5.46,-0.2500813776497325,77.63588297525457
5.47,-0.31370120054104134,76.96421125809493
5.48,-0.20860105321942116,76.78084687240151
5.49,0.8003203800325372,75.80423220946909
5.5,2.3152018187453054,75.59097145654303
5.51,2.161724618353153,74.9192997393834
5.52,0.5263003573200106,74.76682826649701
5.53,-0.10774889092982079,74.46188532072424
5.54,0.10574983915004675,74.40109604068456
5.55,0.04013096447896387,73.72942432352494
5.56,-0.07921242677354637,73.66863504348527
5.57,-0.08895780419994481,73.02685969355825
5.58,-0.08026192895792773,72.72191674778547
5.59,-0.07536425209748134,72.32529160916599
5.6,-0.06696823462243036,72.02034866339321
5.61,-0.05202532256861941,71.532041331927
5.62,-0.02988582410762191,71.25699475338686
5.63,-0.0031984828476384654,71.10452328050047
5.64,0.019690660030774302,70.86036961476736
5.65,0.04073068001289608,70.73879105468802
5.66,0.06761792645085693,70.46374447614788
5.67,0.10085216228960035,69.70138711171595
5.68,0.14678037692990895,69.73128347894857
5.69,0.20780143250751154,69.09050467459598
5.7,0.2813665380031962,68.84635100886288
5.71,0.3652767364592116,68.297254397357
5.72,0.4624806292507243,67.99231145158423
5.73,0.5743275763290819,67.77805415308374
5.74,0.6739803075508178,67.99231145158423
5.75,0.7424978073025731,67.86973634593046
5.76,0.7682855752616582,68.38893659020371
5.77,0.7144111297967478,68.96892611451663
5.78,0.5722285719603192,69.1821868674427
5.79,0.39246384066413853,68.99882248174926
5.8,0.22429360969064738,69.15129395463565
5.81,0.08421005622298147,68.93803320170959
5.82,-0.02198956957751445,71.62372352477372
5.83,-0.09140664263016801,77.72656862252687
5.84,-0.1321373226430641,88.7134835805165
5.85,-0.15687558841776786,99.33366976711926
5.86,-0.1739674811348359,115.78265101850944
5.87,-0.18266335637685296,114.86682563561669
5.88,-0.18431257409516655,114.34862193691787
5.89,-0.18341300079426823,112.57776045117205
5.9,-0.178965110584271,110.1063274266084
5.91,-0.17501698331921728,106.56659754626563
5.92,-0.1762164143870817,101.65263131879652
5.93,-0.16891987539090644,97.99032633279998
5.94,-0.1603739290323724,96.03809355250958
5.95,-0.1666209658441663,94.60306792534358
5.96,-0.17056909310922003,94.11476059387738
5.97,-0.16817023097349118,93.38229959667807
5.98,-0.16677089472764936,92.86409589797924
5.99,-0.17011930645877088,91.52075246365996
6.0,-0.17561669885314948,90.45245560788084
6.01,-0.18266335637685296,89.01842652628928
6.02,-0.19210887603628532,87.24856158611787
6.03,-0.19775619731414698,83.92209245870116
6.04,-0.19990517797740406,81.51144871417718
6.05,-0.20645207255616405,79.40574791542596
6.06,-0.21314889601840709,78.30655814683979
6.07,-0.21619744998256252,78.12419030672078
6.08,-0.21849635952930266,78.36834397245389
6.09,-0.22064534019255974,78.91744058395976
6.1,-0.22294424973929988,79.83226942127808
6.11,-0.2284416421336785,79.6797979483917
6.12,-0.2343888211785063,79.95484452693184
6.13,-0.23223984051524918,79.71069086119874
6.14,-0.22979100208502598,79.95484452693184
6.15,-0.23528839447940458,79.6797979483917
6.16,-0.2361879677803029,81.0530377499436
6.17,-0.22489332522457958,82.48806337710958
6.18,-0.21239925160099182,84.86781420882652
6.19,-0.20400323412594085,86.60778278176528
6.2,-0.19270859157021752,86.88183281473101
6.21,-0.18846060653819768,86.60778278176528
6.22,-0.21849635952930266,89.62930896340923
6.23,-0.25223035831298957,87.37014014619722
6.24,-0.24903187546535113,84.86781420882652
6.25,-0.23973628468940184,83.0680529014225
6.26,-0.24503377190580306,82.3355919042232
6.27,-0.25327986049737095,82.15222751852977
6.28,-0.25372964714782015,82.36548827145582
6.29,-0.24718275256906014,81.29719141567669
6.3,-0.24003614245636795,81.0530377499436
6.31,-0.23149019609783392,80.47404477120509
6.32,-0.27297052052814524,79.92395161412479
6.33,-0.2517805716625404,79.37485500261892
6.34,0.5188039131458579,79.16159424969287
6.35,2.102052922726898,78.61249763818698
6.36,2.522603440896862,77.88003664098768
6.37,1.0595474195747359,77.39172930952147
6.38,0.024888194658186806,77.23925783663509
6.39,0.07616387280939095,76.10917515524187
6.4,0.061470842228051756,75.98759659516253
6.41,-0.07461460768006607,75.01098193223011
6.42,-0.11384599885813163,74.73593535368997
6.43,-0.11289644926273895,74.58346388080358
6.44,-0.11014775306554965,74.40109604068456
6.45,-0.09810346609241105,74.12604946214442
6.46,-0.08041185784141079,73.94268507645099
6.47,-0.06421953842524106,73.08864551917235
6.48,-0.045628356873342484,72.84449185343924
6.49,-0.024238502829760245,72.6611274677458
6.5,-0.0007496444174152653,72.44786671481975
6.51,0.027636890855376114,71.44035913908029
6.52,0.06227046293996137,71.71540571762044
6.53,0.10055230452263425,71.07462691326785
6.54,0.14513115921159536,70.89126252757441
6.55,0.20445302077639002,70.28038009045444
6.56,0.2800171780518488,69.97543714468168
6.57,0.3691249111352766,69.4263405331758
6.58,0.46797802164510294,69.60970491886923
6.59,0.5653318433200987,69.09050467459598
6.6,0.642545218313871,69.24297614748237
6.61,0.6838756138606994,69.36555125313613
6.62,0.659337253263973,70.49463738895493
6.63,0.5483898794865137,71.56293424473405
6.64,0.39031486000088145,76.41511464658906
6.65,0.22979100208502598,86.15036836310613
6.66,0.09275600258151549,98.05211215841408
6.67,-0.0054973923943786125,107.3598478235046
6.68,-0.0730653425507412,113.92110388549133
6.69,-0.12174225338823909,115.87433321135616
6.7,-0.1499788597775474,117.09510154002167
6.71,-0.16327255411304478,117.00341934717495
6.72,-0.1721183582385449,116.78916204867447
6.73,-0.17911503946775406,116.17927615712892
6.74,-0.17991466017966368,115.26345077423619
6.75,-0.1794648735292145,113.28032508113874
6.76,-0.17851532393382183,113.5852680269115
6.77,-0.17531684108618337,110.25879889949479
6.78,-0.17241821600551102,106.41312952780481
6.79,-0.1669208236111324,103.14844622600218
6.8,-0.15962428461495715,100.92017032159721
6.81,-0.16067378679933852,99.18119829423287
6.82,-0.16981944869180476,98.47863366426618
6.83,-0.17301793153944323,97.07549749548166
6.84,-0.17731589286595742,96.89213310978823
6.85,-0.18980996648954518,96.73966163690184
6.86,-0.20125453792875156,95.67136478112272
6.87,-0.20830119545245504,95.03058597677013
6.88,-0.21469816114773196,94.4505964524572
6.89,-0.22399375192368126,93.01656737086563
6.9,-0.23468867894547238,90.85007729207474
6.91,-0.23788716179311084,87.43192597181131
6.92,-0.2374373751426617,84.92960003444061
6.93,-0.2374373751426617,82.5797455699563
6.94,-0.24138550240771542,83.18963146150185
6.95,-0.2479323969864754,83.0680529014225
6.96,-0.2514807138955743,83.03715998861546
6.97,-0.2543793389762467,82.97637070857579
6.98,-0.2549790545101789,83.61714951292838
6.99,-0.2543793389762467,84.25792831728097
7.0,-0.25372964714782015,85.26443934744601
7.01,-0.25482912562669585,86.2111576431458
7.02,-0.25482912562669585,86.4553113088789
7.03,-0.2549790545101789,86.27194692318547
7.04,-0.2578776795908513,86.4553113088789
7.05,-0.25617848557804335,86.2111576431458
7.06,-0.25103092724512516,91.97916342789355
7.07,-0.25327986049737095,91.12412732504048
7.08,-0.25572869892759414,90.0867233820684
7.09,-0.24933173323231722,87.76776183039114
7.1,-0.24248498088659115,85.63116811883287
7.11,-0.23149019609783392,84.5937641758608
7.12,-0.21699707069447213,83.2205243743089
7.13,-0.20370337635897476,82.1821238857624
7.14,-0.20215411122964988,81.48055580137013
7.15,-0.23408896341154017,80.9623521026713
7.16,-0.2677729859007328,80.19899819266494
7.17,-0.26552405264848694,79.40574791542596
7.18,-0.2580276084743343,79.1008049696532
7.19,-0.2587772528917496,78.5507118125729
7.2,-0.2543793389762467,78.39824033968651
7.21,-0.2528300738469218,77.4216256767541
7.22,-0.2528300738469218,77.177472011021
7.23,-0.2513307850120913,76.5366932066684
7.24,-0.2456834637342296,75.98759659516253
7.25,-0.24138550240771542,75.28602851077027
7.26,-0.3047054675320582,75.560078543736
7.27,-0.22444353857413044,75.31592487800289
7.28,0.7452465034997624,75.560078543736
7.29,2.3730243914752696,74.98008901942308
7.3,2.5151069967227095,74.76682826649701
7.31,0.9660417725758051,74.21773165499114
7.32,0.07326524772871859,74.33931021507048
7.33,0.09885311050982631,73.33279918490544
7.34,0.026837270143466496,73.24111699205872
7.35,-0.09905301568780372,72.63023455493875
7.36,-0.12574035694778715,72.44786671481975
7.37,-0.12604021471475327,71.40946622627324
7.38,-0.1272396457826177,71.65361989200635
7.39,-0.12129246673778993,71.19620547334719
7.4,-0.10984789529858353,71.56293424473405
7.41,-0.09275600258151549,71.07462691326785
7.42,-0.07341517661220165,70.86036961476736
7.43,-0.05692299942906581,70.73879105468802
7.44,-0.037382268281774565,69.94554077744905
7.45,-0.009895306309881502,69.85385858460234
7.46,0.02348885841234498,69.60970491886923
7.47,0.061170984461085647,68.96892611451663
7.48,0.10604969691701287,68.75466881601616
7.49,0.16237298081214646,68.23646511731732
7.5,0.23343927158311362,67.68637196023704
7.51,0.3198482847638465,67.38142901446426
7.52,0.41750196420580843,67.35153264723164
7.53,0.5182041976119257,67.38142901446426
7.54,0.6071620018118705,68.02220781881685
7.55,0.6584376799630747,67.80894706589079
7.56,0.6428450760808372,69.27386906028941
7.57,0.5485398083699968,72.14192722347255
7.58,0.3970116834631245,81.90807385279666
7.59,0.23728744625917864,93.68823908802527
7.6,0.10145187782353257,104.70505041324752
7.61,-0.003498340614604571,112.15123894531995
7.62,-0.08331048292208315,115.99591177143549
7.63,-0.13688507062002744,116.97252643436791
7.64,-0.16462191406439225,117.55251595868083
7.65,-0.17991466017966368,117.40004448579444
7.66,-0.18831067765471463,117.216680100101
7.67,-0.19195894715280226,116.2400654371686
7.68,-0.19195894715280226,115.17176858138947
7.69,-0.1869113414088728,112.63954627678615
7.7,-0.18416264521168352,109.31307714936942
7.71,-0.18401271632820046,105.16246483190668
7.72,-0.1786652528173049,102.4458815960355
7.73,-0.17316786042292628,100.64612028863148
7.74,-0.17301793153944323,99.36356613435188
7.75,-0.17731589286595742,98.75368024280634
7.76,-0.18281328526033602,98.50952657707323
7.77,-0.1857119103410084,98.29626582414717
7.78,-0.18646155475842366,97.6853833870272
7.79,-0.19485757223347464,97.10539386271428
7.8,-0.20780143250751154,96.86124019698119
7.81,-0.21804657287885348,96.0679899197422
7.82,-0.22674244812087058,94.84722159107669
7.83,-0.23513846559592155,93.44408542229216
7.84,-0.24003614245636795,91.27659879792687
7.85,-0.24473391413883694,88.13349405620357
7.86,-0.24963159099928334,85.99690034464533
7.87,-0.25118085612860824,84.68544636870752
7.88,-0.25223035831298957,84.41039979016736
7.89,-0.25327986049737095,84.16624612443425
7.9,-0.25372964714782015,85.20365006740634
7.91,-0.2563284144615264,85.05117859451995
7.92,-0.26077630467152363,85.23454298021339
7.93,-0.2615259490889389,85.84442887175894
7.94,-0.2603265180210745,86.88183281473101
7.95,-0.2542294100927636,87.34024377896459
7.96,-0.24858208881490196,89.14100163194303
7.97,-0.24963159099928334,89.04931943909631
7.98,-0.25342978938085403,89.2017909119827
7.99,-0.2554288411606281,89.04931943909631
8.0,-0.2549790545101789,93.22982812379169
8.01,-0.25372964714782015,92.40568493374566
8.02,-0.2528300738469218,91.27659879792687
8.03,-0.25023130653321557,89.07921580632895
8.04,-0.24748261033602625,87.12598648046412
8.05,-0.24828223104793587,85.41790736590681
8.06,-0.25053116430018163,84.47118907020703
8.07,-0.2506810931836647,82.9145848829617
8.08,-0.25298000273040483,82.76211341007532
8.09,-0.25103092724512516,81.6948130998706
8.1,-0.246732965918611,81.0530377499436
8.11,-0.23423889229502323,80.47404477120509
8.12,-0.2183464306458196,80.25978747270462
8.13,-0.20570242813874878,79.37485500261892
8.14,-0.20200418234616682,79.1008049696532
8.15,-0.23358920046659667,78.12419030672078
8.16,-0.26747312813376667,77.97072228825998
8.17,-0.26582391041545306,77.30004711667476
8.18,-0.25587862781107723,77.11668273098132
8.19,-0.25817753735781734,76.50679683943578
8.2,-0.26092623355500666,76.38422173378201
8.21,-0.2601765891375914,75.83512512227614
8.22,-0.25847739512478346,75.43849998365665
8.23,-0.25617848557804335,74.58346388080358
8.24,-0.24843215993141893,74.6751460736503
8.25,-0.23923652174445834,73.75932069075756
8.26,-0.23283955604918138,73.97357798925803
8.27,-0.2528300738469218,73.72942432352494
8.28,-0.31784923298407247,73.94268507645099
8.29,0.09535476989522175,73.82110651637164
8.3,1.5853979902442974,73.5460599378315
8.31,2.7943245540626487,73.11854188640497
8.32,1.8927022250900618,72.84449185343924
8.33,0.38191884252583047,72.69202038055285
8.34,0.06681830573894731,72.02034866339321
8.35,0.11474557215902995,71.47125205188733
8.36,-0.03143508923694679,71.65361989200635
8.37,-0.11414585662509773,71.10452328050047
8.38,-0.12239194521666565,70.86036961476736
8.39,-0.12374130516801313,70.73879105468802
8.4,-0.11764419723970229,70.89126252757441
8.41,-0.10360085848678967,70.28038009045444
8.42,-0.08895780419994481,70.46374447614788
8.43,-0.07706344611028927,69.36555125313613
8.44,-0.061470842228051756,70.09801225033543
8.45,-0.039681177828514706,69.51802272602251
8.46,-0.014643054286844849,69.6704941989089
8.47,0.010395069254825012,69.05961176178893
8.48,0.04028089336244692,69.15129395463565
8.49,0.08181119408725261,68.60219734312977
8.5,0.1348860188402534,68.41883295743634
8.51,0.19850584173156224,67.77805415308374
8.52,0.2752694300748854,67.68637196023704
8.53,0.3689749822517936,67.07648606869148
8.54,0.47197612520465104,66.89312168299806
8.55,0.5697797335300959,66.64896801726495
8.56,0.6481925395917327,67.1681682615382
8.57,0.6822263961423858,67.80894706589079
8.58,0.6414957161294896,69.57881200606218
8.59,0.5238515188897874,74.85851045934373
8.6,0.36727578823898566,85.53948592598616
8.61,0.21314889601840709,97.38044044125444
8.62,0.08421005622298147,107.96973371505015
8.63,-0.010694927021791117,114.50109340980426
8.64,-0.07661365945984011,117.09510154002167
8.65,-0.12389123405149617,117.79666962441392
8.66,-0.1530274137417028,118.80417720015339
8.67,-0.1669208236111324,118.5899199016529
8.68,-0.17471712555225116,118.80417720015339
8.69,-0.17731589286595742,117.73588034437425
8.7,-0.17426733890180202,117.24757301290805
8.71,-0.17076899828719744,116.17927615712892
8.72,-0.16921973315787256,113.55437511410446
8.73,-0.1666209658441663,109.00713765802223
8.74,-0.16462191406439225,105.19335774471372
8.75,-0.1617232889837199,101.866888617297
8.76,-0.16082371568282158,100.03523785151152
8.77,-0.163872269646977,98.66199804995962
8.78,-0.16647103696068324,98.02121924560703
8.79,-0.17256814488899408,97.86874777272064
8.8,-0.17961480241269756,97.197076055561
8.81,-0.18586183922449143,96.64797944405512
8.82,-0.19455771446650852,96.49550797116873
8.83,-0.20490280742683917,95.48800039542928
8.84,-0.21194946495054268,94.4505964524572
8.85,-0.22004562465862754,89.87346262914234
8.86,-0.2276420214217689,87.15687939327117
8.87,-0.23358920046659667,85.0202856817129
8.88,-0.23773723290962778,84.34961051012769
8.89,-0.24123557352423236,84.25792831728097
8.9,-0.24278483865355724,84.80702492878684
8.91,-0.24488384302232,84.56287126305375
8.92,-0.2500813776497325,84.89870712163356
8.93,-0.2525302160799557,84.5937641758608
8.94,-0.2539295523257975,84.68544636870752
8.95,-0.2543793389762467,84.62366054309342
8.96,-0.25268014496343877,85.66206103163992
8.97,-0.2549790545101789,86.18026473033875
8.98,-0.25587862781107723,87.0960901132315
8.99,-0.25342978938085403,87.03530083319183
9.0,-0.25268014496343877,94.35891425961049
9.01,-0.2503812354166986,93.84071056091166
9.02,-0.246732965918611,92.46747075935976
9.03,-0.24888194658186807,90.66671290638132
9.04,-0.2528300738469218,88.77427286055617
9.05,-0.2531299316138879,88.65269430047682
9.06,-0.2563284144615264,87.0960901132315
9.07,-0.25817753735781734,85.50859301317911
9.08,-0.25452926785972974,84.44129270297441
9.09,-0.24763253921950928,83.43378512723496
9.1,-0.2418352890581646,82.88468851572908
9.11,-0.23713751737569558,81.72470946710324
9.12,-0.22554301705300614,81.5413450814098
9.13,-0.20430309189290696,80.90056627705721
9.14,-0.19485757223347464,80.412258945591
9.15,-0.22934121543457683,79.31406572257924
9.16,-0.2688724643796085,79.5891123011194
9.17,-0.26827274884567626,78.61249763818698
9.18,-0.2593769684256818,78.42913325249356
9.19,-0.26322514310174683,78.21487595399307
9.2,-0.2629252853347807,77.63588297525457
9.21,-0.2580276084743343,77.08578981817428
9.22,-0.25727796405691905,76.2925395409353
9.23,-0.2574278929404021,75.74344292942942
9.24,-0.2564783433450094,75.13256049230945
9.25,-0.2497815198827664,74.95019265219045
9.26,-0.24033600022333404,75.22424268515617
9.27,-0.29421044568824445,74.95019265219045
9.28,-0.2885631244103828,75.13256049230945
9.29,0.5078091283571007,74.49178168795686
9.3,2.1811154206169614,74.79772117930406
9.31,2.690723695575859,74.12604946214442
9.32,1.2390122931039504,73.63774213067822
9.33,0.12314158963408091,72.20371304908664
9.34,0.10345092960330661,72.05124157620025
9.35,0.07341517661220165,71.83698427769978
9.36,-0.07521432321399828,71.71540571762044
9.37,-0.12359137628453007,71.34867694623358
9.38,-0.12923869756239173,71.31878057900094
9.39,-0.12893883979542564,71.07462691326785
9.4,-0.12159232450475603,71.28788766619391
9.41,-0.10604969691701287,70.70789814188099
9.42,-0.08620910800275551,70.52453375618755
9.43,-0.06911721528568746,69.85385858460234
9.44,-0.05232518033558552,70.0671193375284
9.45,-0.033883927667169994,69.82296567179529
9.46,-0.007646373057635706,69.27386906028941
9.47,0.030535515936048474,69.0297153945563
9.48,0.0662185902050151,68.78556172882321
9.49,0.10465036067117103,68.297254397357
9.5,0.16327255411304478,67.96141853877718
9.51,0.2418352890581646,67.47311120731098
9.52,0.3312928562030529,67.74815778585112
9.53,0.425848005386365,67.04559315588445
9.54,0.5325473941318044,67.22895754157787
9.55,0.6374976125699416,67.38142901446426
9.56,0.7028166294740584,67.96141853877718
9.57,0.7037162027749567,68.96892611451663
9.58,0.6251534678298369,69.27386906028941
9.59,0.47422505845689683,68.96892611451663
9.6,0.302256629101835,73.5460599378315
9.61,0.15287748485821975,82.5179597443422
9.62,0.03463357208458526,94.78643231103702
9.63,-0.048676910837497894,105.34582921760011
9.64,-0.10619962580049591,112.33360678543895
9.65,-0.14678037692990895,116.57590129574841
9.66,-0.1709189271706805,117.52162304587378
9.67,-0.1918090182693192,117.40004448579444
9.68,-0.19775619731414698,116.85094787428856
9.69,-0.1887604643051638,116.2400654371686
9.7,-0.18601176810797448,115.08008638854275
9.71,-0.191209302735387,112.27281750539929
9.72,-0.19270859157021752,108.91645201074994
9.73,-0.18036444683011282,103.97258941604821
9.74,-0.1702692353422539,100.37107371009134
9.75,-0.1764163195650591,97.56380482694786
9.76,-0.17931494464573144,96.43471869112906
9.77,-0.17316786042292628,95.8238362540091
9.78,-0.17776567951640657,95.67136478112272
9.79,-0.1887604643051638,94.60306792534358
9.8,-0.19605700330133904,94.41970353965016
9.81,-0.20555249925526575,93.38229959667807
9.82,-0.21714699957795516,92.86409589797924
9.83,-0.2306905753859243,91.0633380450008
9.84,-0.24138550240771542,88.83506214059584
9.85,-0.24658303703512793,85.81453250452631
9.86,-0.2519305005460235,83.2205243743089
9.87,-0.2540794812092806,81.29719141567669
9.88,-0.25757782182388517,81.02314138271097
9.89,-0.25862732400826655,80.93145918986426
9.9,-0.2542294100927636,81.90807385279666
9.91,-0.26002666025410837,82.029652412876
9.92,-0.2641247164026451,83.67793879296805
9.93,-0.2566282722284925,83.28131365434857
9.94,-0.2554288411606281,83.7088317057751
9.95,-0.26092623355500666,83.28131365434857
9.96,-0.26322514310174683,84.44129270297441
9.97,-0.26212566462287107,85.7228503116796
9.98,-0.26062637578804054,87.55350453189065
9.99,-0.26077630467152363,88.98853015905664
