time_s,ECG1,ECG2,NIBP
0.0,-0.04788370444458236,0.018155799073155898,93.74554395097711
0.01,-0.03686053740435573,-0.002106072692486084,92.76821724393412
0.02,-0.009623399797023252,0.04823995813737522,90.26424671113541
0.03,0.02111315591831768,0.04477220051440245,89.94838936787562
0.04,-0.04210966456636841,0.062129144428339486,89.89345765600434
0.05,-0.08672724544347622,0.0395614861804067,89.54555681415297
0.06,-0.10644063411859052,0.04072345732108868,88.98250676747247
0.07,-0.13892689888793566,-0.02872247413373263,88.25237276385018
0.08,-0.19404273408906886,-0.01483328784276837,87.60234750670682
0.09,-0.18476927610284644,-0.03798193166104214,86.67995251153509
0.1,-0.19690059221060907,-0.026416687651441832,86.07341485962316
0.11,-0.1893768432783909,-0.04666040361801066,85.18764100569894
0.12,-0.2009832466699523,-0.04435461713571986,84.4689511087165
0.13,-0.17835367623816428,-0.05014631704005659,83.63582014533559
0.14,-0.24560082754706009,-0.048403360329033626,82.86219853648187
0.15,-0.3511666071386485,-0.07560074734062117,82.20988445801055
0.16,-0.12271292832082983,0.09628020248494573,81.6720114459377
0.17,0.949392132702694,0.3642234852065805,81.20051425237597
0.18,1.7455097522746175,0.28145119723206274,80.90754512239587
0.19,1.233486559437847,0.13273704702384279,80.57108838718435
0.2,-0.003849359918809301,-0.2706303409844618,80.32389568376364
0.21,-0.21778045358839287,-0.2445767693144831,79.96455073527241
0.22,-0.17543749448149057,-0.07560074734062117,79.60520578678118
0.23,-0.1284869681990438,-0.03451417403806936,79.30079255016123
0.24,-0.14820035687415808,-0.01483328784276837,79.07648806002022
0.25,-0.14820035687415808,-0.033352202897387384,78.86362767651906
0.26,-0.15228301133350128,-0.0038490294035090503,78.66221139965774
0.27,-0.12965344090171327,-0.0009441015518041068,78.44706219482859
0.28,-0.14300955334727888,0.0065723992644824356,78.25709002460712
0.29,-0.10299953964571554,0.010040156887455211,77.97556500126687
0.3,-0.1250458737261688,0.011783113598478178,77.66199647933503
0.31,-0.1157724157399464,-0.013108486930818558,77.46058020247372
0.32,-0.09255960895682364,0.031463999793779174,77.38047145599478
0.33,-0.0734294566330441,0.021042571125787685,77.27976331756412
0.34,-0.0919763726054889,0.01871862884442373,77.14472285921391
0.35,-0.04788370444458236,0.03781852946938374,76.93186247571275
0.36,-0.04385937362037264,0.05691843009434374,76.59540574050122
0.37,0.002566239945872867,0.06559690205131226,76.17884025881077
0.38,0.001399767243203382,0.0783422730006677,75.89731523547051
0.39,0.03441094472874981,0.08585877381695424,76.17884025881077
0.4,0.064564264092756,0.12636436154916506,77.97556500126687
0.41,0.11209802672653751,0.14199650455115229,83.18721116505354
0.42,0.11851362659121968,0.15472371970143456,91.07220063990867
0.43,0.1538577494821051,0.16165923494738013,98.60928927291242
0.44,0.1660473892250012,0.1813401211426811,104.45951658720261
0.45,0.14458429149588267,0.1437213054631021,108.30015877553552
0.46,0.08894354357854824,0.11594293288117356,110.63704535139244
0.47,0.03441094472874981,0.06329111556902146,111.7837448367052
0.48,-0.019480094134580402,0.051707715760348,112.06298103871748
0.49,-0.05488254066059928,0.021042571125787685,111.873008868496
0.5,-0.12271292832082983,-0.004430014973850039,111.26647121658407
0.51,-0.1470338841714886,-0.031046416415096586,110.23192397634183
0.52,-0.17257963635995033,-0.040886859512747085,108.71672425722599
0.53,-0.15864028756305,-0.03914390280172412,106.67280681134918
0.54,-0.1737461090626198,-0.030465430844755597,104.12305985199109
0.55,-0.15228301133350128,-0.0403058739424061,101.13614801899081
0.56,-0.15805705121171523,-0.019463016606423123,98.08057154615146
0.57,-0.14184308064460938,-0.02814148856339164,95.47360405359413
0.58,-0.15980676026571947,-0.03451417403806936,93.3404225759265
0.59,-0.13601071713126195,-0.029884445274414608,91.72451471838
0.6,-0.14534249875261784,-0.026416687651441832,90.57781523306724
0.61,-0.1470338841714886,-0.045516588276401836,89.71264077109475
0.62,-0.18185309434617272,-0.06576030424297066,89.09465901254298
0.63,-0.14586741146881912,-0.041467845083088074,88.57967421374983
0.64,-0.16849698190060713,-0.04377363156537887,88.09673291354825
0.65,-0.14761712052282333,-0.032771217327046395,87.54512697350758
0.66,-0.15572410580637627,-0.029884445274414608,86.91570110831596
0.67,-0.1603899966170542,-0.04782237475869264,86.23134353125306
0.68,-0.18879360692705616,-0.051871117952006406,85.43483370911966
0.69,-0.15805705121171523,-0.03683811631943332,84.48955050066823
0.7,-0.20967346830483993,-0.06922806186594344,83.53511200690492
0.71,-0.15747381486038048,-0.02757865879212381,82.73860218477151
0.72,-0.13834366253660094,-0.0015250871221450955,82.26710499120979
0.73,-0.15344948403617076,-0.02699767322178282,82.12062042621973
0.74,-0.17543749448149057,-0.03162740198543758,82.29914848980135
0.75,-0.1830195670488422,-0.04782237475869264,82.89653085640141
0.76,-0.18587742517038244,-0.031046416415096586,83.79374881696548
0.77,-0.19462597044040358,-0.052452103522347394,84.7252990974491
0.78,-0.18879360692705616,-0.03567614517875134,85.62480587934112
0.79,-0.17718720353549477,-0.04261166042469689,86.52431266123317
0.8,-0.18879360692705616,-0.033352202897387384,87.47875115499647
0.81,-0.18068662164350324,-0.03798193166104214,88.49956546727088
0.82,-0.18587742517038244,-0.033352202897387384,89.4311157477545
0.83,-0.16849698190060713,-0.030465430844755597,90.12920625278521
0.84,-0.18996007962972564,-0.04319264599503788,90.4542188813569
0.85,-0.17141316365728085,-0.02872247413373263,90.41988656143735
0.86,-0.16155646931972367,-0.01194651579013658,90.08342982622582
0.87,-0.11343947033460743,0.0007806993601457037,89.39907224916293
0.88,-0.07401269298437883,0.015831856791791943,88.57967421374983
0.89,-0.06876356582236615,0.008896341545846391,87.7694314636486
0.9,0.007757043472752076,0.05056390041873918,86.9500334282355
0.91,-0.04210966456636841,0.03723754389904275,86.20845531797336
0.92,-0.08672724544347622,0.041867272662697505,85.54698595419016
0.93,-0.09891688518637233,0.059242372375707696,84.91756008899853
0.94,-0.15228301133350128,0.0031046416415096588,84.3110224370866
0.95,-0.19170978868372987,-0.033352202897387384,83.56944432682447
0.96,-0.20559081384549674,-0.026416687651441832,82.81642210992248
0.97,-0.22302958075040555,-0.049565331469715604,82.25566088456993
0.98,-0.2154475081830539,-0.04319264599503788,81.85053950951932
0.99,-0.21433935911551788,-0.04319264599503788,81.57130330750704
1.0,-0.2206966353450666,-0.04666040361801066,81.25544596424724
1.01,-0.21894692629106235,-0.056500846715661156,80.91898922903572
1.02,-0.3621897741788751,-0.06692227538365264,80.58253249382419
1.03,-0.2861940775999582,-0.032771217327046395,80.25523104392454
1.04,0.2681137507085811,0.2143292080586054,79.95310662863257
1.05,1.49961730655189,0.4325074455207198,79.6715816052923
1.06,1.7049165022217194,0.22879937991991064,79.4243889018716
1.07,0.49190153871572184,-0.08197343281529888,79.21152851837043
1.08,-0.21894692629106235,-0.3279118870602687,78.94144760167002
1.09,-0.22127987169640131,-0.16703335147303427,78.70569900488915
1.1,-0.14242631699594413,-0.05129013238166542,78.5821026531788
1.11,-0.1511165386308318,-0.0403058739424061,78.39213048295733
1.12,-0.16733050919793763,-0.046097573846742824,78.13349367289676
1.13,-0.14125984429327465,-0.013689472501159547,77.81992515096493
1.14,-0.15689057850904575,-0.026416687651441832,77.48117959442544
1.15,-0.13256962265838698,-0.015414273413109358,77.213387499053
1.16,-0.13315285900972174,-0.01194651579013658,77.00968240086371
1.17,-0.12271292832082983,-0.010784544649454603,76.83115433728209
1.18,-0.12387940102349931,-0.011365530219795592,76.7396014841633
1.19,-0.09430931801082787,0.01120212802813719,76.7396014841633
1.2,-0.08620233272727496,0.01120212802813719,76.68466977229204
1.21,-0.06759709311969667,0.01699382793247392,76.48325349543072
1.22,-0.06934680217370089,0.020461585555446696,76.14450793889122
1.23,-0.03744377375569047,0.041867272662697505,75.84238352359924
1.24,-0.030503261174807034,0.04419121494406146,75.59519082017853
1.25,0.018196974161643967,0.0783422730006677,75.48303857510801
1.26,0.058206987863207306,0.10726446092420505,75.64096724673792
1.27,0.06398102774142125,0.10668347535386406,76.63889334573264
1.28,0.09296787440275796,0.11884786073287851,80.43604792883414
1.29,0.13647730621232976,0.1500939909377798,87.72594385841718
1.3,0.1538577494821051,0.1610964051761123,95.74368497029454
1.31,0.16488091652233172,0.16686994928137586,102.53919549303615
1.32,0.16429768017099697,0.15646667641245754,107.12141579163121
1.33,0.14866694595522587,0.13967256226978833,110.03050769948051
1.34,0.08311118006520081,0.0927942890628998,111.66930377030671
1.35,0.04776705717431542,0.08469680267627226,112.29872963549835
1.36,-0.02589569399926257,0.023348357608078487,112.17513328378799
1.37,-0.06701385676836191,0.0031046416415096588,111.41295578157413
1.38,-0.11863027386148664,-0.02872247413373263,110.33492093610046
1.39,-0.1168805648074824,-0.01483328784276837,108.9639169606467
1.4,-0.1447592624012831,-0.03393318846772837,107.21067982342201
1.41,-0.1435927896986136,-0.03162740198543758,104.81886153569383
1.42,-0.1447592624012831,-0.041467845083088074,101.96699016104377
1.43,-0.1284869681990438,-0.02120597331744609,98.83359376305344
1.44,-0.13601071713126195,-0.03451417403806936,95.91305774856428
1.45,-0.1273204954963743,-0.03162740198543758,93.37475489584604
1.46,-0.1354858044150607,-0.0403058739424061,91.47732201495928
1.47,-0.13431933171239122,-0.03914390280172412,89.93694526123578
1.48,-0.14645064782015385,-0.05591986114532017,88.79253459725099
1.49,-0.13717718983393146,-0.0420306748543559,88.12877641213981
1.5,-0.11979674656415612,-0.025835702081100843,87.69161153849764
1.51,-0.13951013523927042,-0.031046416415096586,87.26360195016733
1.52,-0.14184308064460938,-0.040886859512747085,86.72572893809448
1.53,-0.1435927896986136,-0.03740094609070115,86.1306353928224
1.54,-0.14936682957682756,-0.03798193166104214,85.41194549583996
1.55,-0.15344948403617076,-0.03914390280172412,84.51243871394792
1.56,-0.17432934541395453,-0.06287353219033888,83.53511200690492
1.57,-0.16097323296838895,-0.03856291723138313,82.61500583306116
1.58,-0.14645064782015385,-0.030465430844755597,81.93980354131014
1.59,-0.15689057850904575,-0.024673730940418866,81.5598592008672
1.6,-0.16791374554927238,-0.03509515960841035,81.47975045438825
1.61,-0.17141316365728085,-0.03856291723138313,81.72694315780898
1.62,-0.17199640000861557,-0.04435461713571986,82.25566088456993
1.63,-0.17257963635995033,-0.03798193166104214,83.00868310147192
1.64,-0.16616403649526815,-0.03451417403806936,83.96312159523522
1.65,-0.1760207308328253,-0.03972488837206511,84.98393590750965
1.66,-0.178936912589499,-0.04782237475869264,85.9955949344722
1.67,-0.17316287271128505,-0.03451417403806936,87.1079620998654
1.68,-0.1737461090626198,-0.04724138918835165,88.25237276385018
1.69,-0.17777043988682953,-0.03798193166104214,89.27547589745257
1.7,-0.18476927610284644,-0.054195060233370354,90.02849811435455
1.71,-0.17660396718416005,-0.03972488837206511,90.39699834815765
1.72,-0.1749125817652893,-0.046097573846742824,90.28484610308715
1.73,-0.16849698190060713,-0.03509515960841035,89.71264077109475
1.74,-0.15864028756305,-0.041467845083088074,88.98250676747247
1.75,-0.14417602604994836,-0.02178695888778708,88.39885732884022
1.76,-0.08328615097060124,0.007734370405164412,87.81520789020799
1.77,-0.06701385676836191,0.0106211424577962,87.19722613165621
1.78,-0.0878937181461457,-0.018319201264814303,86.46709212803393
1.79,-0.0020996508648050733,0.025091314319101454,85.55843006083
1.8,-0.04619231902571161,0.01757481350281491,84.67036738557782
1.81,-0.07978673286259277,0.02797808637173324,83.905901062036
1.82,-0.09314284530815839,0.02914005751241522,83.26503109020452
1.83,-0.1250458737261688,-0.004430014973850039,82.72715807813167
1.84,-0.19229302503506462,-0.05998676013770709,82.25566088456993
1.85,-0.18762713422438668,-0.03740094609070115,81.86198361615918
1.86,-0.17777043988682953,-0.040886859512747085,81.5140827743078
1.87,-0.19404273408906886,-0.03798193166104214,81.10896139925718
1.88,-0.19515088315660487,-0.05072730261039758,80.67179652561501
1.89,-0.2061740501968315,-0.04782237475869264,80.23463165197282
1.9,-0.2027329557239565,-0.05824380342668412,79.89588609543333
1.91,-0.35291631619265273,-0.06287353219033888,79.5823175735015
1.92,-0.2380770786148419,-0.02120597331744609,79.27790433688155
1.93,0.504091178458618,0.23517206539458835,79.17719619845089
1.94,1.6637400158174867,0.333540184772947,79.18864030509073
1.95,1.5547331417530232,0.18538886433599489,78.99866813486926
1.96,0.2756374996407993,-0.17629280900034378,78.6049908664585
1.97,-0.21894692629106235,-0.29840871356639037,78.18842538476804
1.98,-0.19515088315660487,-0.14504667879544247,77.87485686283621
1.99,-0.1221296919694951,-0.026416687651441832,77.68488469261473
2.0,-0.13490256806372594,-0.040886859512747085,77.56128834090438
2.01,-0.1470338841714886,-0.03162740198543758,77.44913609583386
2.02,-0.1284869681990438,-0.02814148856339164,77.27976331756412
2.03,-0.1314031499557175,-0.016576244553791336,77.14472285921391
2.04,-0.09833364883503759,-0.007897772596822816,77.04401472078325
2.05,-0.1157724157399464,-0.015414273413109358,76.85404255056179
2.06,-0.08672724544347622,-0.007316787026481827,76.6503374523725
2.07,-0.1012498305917113,-0.011365530219795592,76.42603296223147
2.08,-0.07517916568704831,-0.016576244553791336,76.22461668537015
2.09,-0.06701385676836191,0.01757481350281491,76.08957622701995
2.1,-0.04502584632304212,0.007734370405164412,76.00031219522914
2.11,-0.03686053740435573,0.03204498536412016,75.93164755539006
2.12,-0.01603899966170542,0.013526070309501145,75.85382763023908
2.13,-0.0003499418108008455,0.042448258233038494,75.60663492681837
2.14,0.04251793001230273,0.04823995813737522,75.30222169019842
2.15,0.058790224214542046,0.07543734514896276,75.1465818398965
2.16,0.11384773578054175,0.08353483153559028,75.61807903345822
2.17,0.13356112445565604,0.128688303830529,78.04422964110596
2.18,0.1504166550092301,0.10958840320556901,84.47810639402837
2.19,0.16488091652233172,0.14604524774446606,92.69955260409503
2.2,0.18401106884611126,0.1223156183558513,99.98944853367807
2.21,0.17473761085988887,0.1408345334104703,105.33613515581494
2.22,0.17415437450855412,0.11131320411751881,108.72816836386583
2.23,0.11326449942920701,0.0927942890628998,110.65993356467214
2.24,0.054124333403864106,0.024510328748760465,111.51366392000479
2.25,0.022804541337188435,0.038399515039724726,111.61437205843545
2.26,-0.01889685778324566,-0.000363115981463118,111.0536108330829
2.27,-0.06876356582236615,-0.011365530219795592,110.07628412603991
2.28,-0.060073344187478485,-0.025254716510759855,108.65950372402675
2.29,-0.09833364883503759,-0.02872247413373263,106.89711130149018
2.3,-0.06240628959281745,-0.03798193166104214,104.4824048004823
2.31,-0.06993003852503563,-0.022367944458128067,101.42682832764295
2.32,-0.07745378745725381,-0.04724138918835165,98.18127968458211
2.33,-0.09080989990281942,-0.03740094609070115,95.05932739323164
2.34,-0.03400267928281549,-0.024673730940418866,92.30816415701223
2.35,-0.051966358903925564,-0.018319201264814303,90.15209446606491
2.36,-0.046717231741912876,-0.03509515960841035,88.56823010710997
2.37,-0.028170315769468064,0.010040156887455211,87.53368286686774
2.38,-0.03744377375569047,-0.032771217327046395,86.837881183165
2.39,-0.052549595255260304,-0.018882031036082134,86.28627524312432
2.4,-0.038610246458359955,-0.0403058739424061,85.68202641254037
2.41,-0.05949010783614374,-0.013689472501159547,84.96104769422995
2.42,-0.046717231741912876,-0.025254716510759855,84.25380190388736
2.43,-0.06934680217370089,-0.024673730940418866,83.86241345680456
2.44,-0.04560908267437687,-0.03914390280172412,83.50306850831335
2.45,-0.06701385676836191,-0.01425230227242738,82.82786621656233
2.46,-0.04035995551236418,-0.02757865879212381,81.88487182943886
2.47,-0.07459592933571357,-0.018319201264814303,81.13184961253688
2.48,-0.05021664984992133,-0.03393318846772837,80.74961645076597
2.49,-0.0734294566330441,-0.015414273413109358,80.72672823748627
2.5,-0.05832363513347426,-0.04319264599503788,81.04258558074608
2.51,-0.07284622028170934,-0.010784544649454603,81.66056733929786
2.52,-0.058906871484809,-0.045516588276401836,82.5142976946305
2.53,-0.06701385676836191,-0.0049928447451178725,83.58088843346431
2.54,-0.08036996921392753,-0.05129013238166542,84.77107552400848
2.55,-0.07459592933571357,-0.007316787026481827,86.00703904111204
2.56,-0.05021664984992133,-0.03567614517875134,87.23155845157575
2.57,-0.0659057077008259,-0.010203559079113614,88.42174554211992
2.58,-0.03341944293148075,-0.02930345970407362,89.41051635580277
2.59,-0.038610246458359955,0.01929961441476472,90.0170540077147
2.6,0.025720723093862145,0.0007806993601457037,90.18413796465649
2.61,0.044850875417641704,0.03781852946938374,89.93694526123578
2.62,0.057623751511872566,0.010040156887455211,89.42196046244263
2.63,0.09413434710542745,0.05228870133068899,88.87035452240195
2.64,0.07617066748431738,0.02914005751241522,88.29814919040957
2.65,0.03732712648542352,0.0806480594829585,87.68016743185778
2.66,0.020529919566982937,0.046497001426352255,86.9500334282355
2.67,-0.03166973387747652,0.020461585555446696,86.02992725439174
2.68,-0.07284622028170934,-0.045516588276401836,85.10753225922001
2.69,-0.08672724544347622,-0.006154815885799849,84.25380190388736
2.7,-0.06357276229548693,-0.03914390280172412,83.61522075338385
2.71,-0.09430931801082787,-0.017738215694473314,83.10939123990258
2.72,-0.07687055110591907,-0.05882478899702511,82.6493381529807
2.73,-0.09658393978103337,-0.02814148856339164,82.19844035137069
2.74,-0.07576240203838305,-0.06403550333102086,81.73838726444882
2.75,-0.24560082754706009,-0.032771217327046395,81.3332658893982
2.76,-0.11110652492926845,-0.015995258983450347,80.94187744231542
2.77,0.60149164913152,0.2860809259957175,80.54820017390465
2.78,1.7785209297601638,0.35033429891561624,80.21174343869312
2.79,1.7246298908968336,0.22242669444523291,79.95310662863257
2.8,0.45772388852750595,-0.13753017797915593,79.6715816052923
2.81,-0.08731048179481096,-0.26716258336148907,79.4243889018716
2.82,-0.06473923499815643,-0.153725150752411,79.20008441173059
2.83,-0.003849359918809301,-0.006735801456140838,79.02155634814895
2.84,0.00892351617542156,-0.041467845083088074,78.84073946323936
2.85,-0.03225297022881126,-0.009622573508772627,78.61643497309834
2.86,0.011839697932095274,-0.03162740198543758,78.38068637631748
2.87,-0.003849359918809301,0.01757481350281491,78.14493777953662
2.88,0.021696392269652424,-0.024673730940418866,77.93207739603544
2.89,0.003674389013408878,0.01120212802813719,77.72837229784615
2.9,0.050100002579654385,-0.006154815885799849,77.53840012762468
2.91,0.03266123567474558,0.03435077184641096,77.41480377591432
2.92,0.0738377220789784,-0.0015250871221450955,77.30265153084382
2.93,0.06281455503875177,0.05286968690102998,77.16761107249361
2.94,0.09938347426744013,0.007734370405164412,76.94330658235259
2.95,0.09646729251076641,0.059242372375707696,76.66178155901234
2.96,0.15735716759011353,0.0395614861804067,76.39170064231193
2.97,0.15735716759011353,0.09453724577392277,76.16739615217092
2.98,0.2159140972641217,0.08181003062364048,76.03235569382072
2.99,0.20430769387256031,0.128107318260188,76.08957622701995
3.0,0.26519756895190744,0.10958840320556901,76.93186247571275
3.01,0.2675305143572464,0.15530470527177556,80.17741111877358
3.02,0.3284203894365935,0.1402535478401293,87.18578202501637
3.03,0.32608744403125456,0.1923425353810136,95.0478832865918
3.04,0.36259803962480947,0.15588569084211654,101.92121373448437
3.05,0.33769384742281594,0.18480787876565388,106.72773852322044
3.06,0.32608744403125456,0.11768588959219653,109.65971864434944
3.07,0.2594235290736935,0.12462140483814209,111.35573524837488
3.08,0.2118314428047785,0.03435077184641096,112.05153693207762
3.09,0.14691723690122166,0.06501591648097127,112.14308978519641
3.1,0.12253795741542942,-0.004430014973850039,111.58003973851591
3.11,0.07733714018698686,0.031463999793779174,110.59126892483306
3.12,0.10054994697010962,-0.01194651579013658,109.06462509907736
3.13,0.050683238930989125,0.009459171317114223,107.05503997312009
3.14,0.06981339125476868,-0.03914390280172412,104.49384890712216
3.15,0.05237462434985988,0.014088900080768978,101.61908931919238
3.16,0.0750041947816479,-0.03972488837206511,98.57495695299288
3.17,0.06170640597121576,0.013526070309501145,95.70019736506312
3.18,0.09238463805142322,-0.03567614517875134,93.30609025600695
3.19,0.05587404245786834,-0.002106072692486084,91.45443380167958
3.2,0.09821700156477065,-0.03567614517875134,90.07198571958597
3.21,0.08141979464633006,0.01699382793247392,89.12899133246252
3.22,0.10632398684832356,-0.024673730940418866,88.48812136063104
3.23,0.06981339125476868,0.01120212802813719,87.97313656183789
3.24,0.0935511107540927,-0.030465430844755597,87.33226659000641
3.25,0.04718382082298067,0.0042666127821916365,86.69139661817493
3.26,0.08083655829499532,-0.02757865879212381,86.07341485962316
3.27,0.04776705717431542,0.01120212802813719,85.52409774091046
3.28,0.08661059817320926,-0.022367944458128067,84.8603395557993
3.29,0.057623751511872566,0.026834271030124417,83.97456570187508
3.3,0.07156310030877291,-0.02757865879212381,82.94001846163283
3.31,0.04426763906630696,0.01641284236213293,82.06339989302049
3.32,0.06514750044409075,-0.04319264599503788,81.57130330750704
3.33,0.058206987863207306,0.023929343178419476,81.49119456102811
3.34,0.07214633666010765,-0.03162740198543758,81.66056733929786
3.35,0.035577417431419296,0.005991413694141447,82.08628810630019
3.36,0.07617066748431738,-0.02930345970407362,82.66078225962055
3.37,0.05184971163365861,0.01641284236213293,83.40007154855472
3.38,0.0686469185520992,-0.03856291723138313,84.29957833044675
3.39,0.04718382082298067,0.01699382793247392,85.41194549583996
3.4,0.07558743113298264,-0.029884445274414608,86.59068847974427
3.41,0.036160653782754036,0.007734370405164412,87.70305564513748
3.42,0.07792037653832161,-0.023511759799736888,88.55678600047013
3.43,0.032136322958544315,0.010040156887455211,89.12899133246252
3.44,0.07039662760610342,-0.030465430844755597,89.34185171596368
3.45,0.04776705717431542,0.005991413694141447,89.28692000409242
3.46,0.09127648898388721,-0.026416687651441832,89.02828319403186
3.47,0.14055996067167295,0.05575645895366176,88.56823010710997
3.48,0.1712381927518804,-0.0049928447451178725,87.93880424191835
3.49,0.17415437450855412,0.06617788762165325,87.20867023829607
3.5,0.23504424958790124,0.046497001426352255,86.46709212803393
3.51,0.158523640292783,0.08469680267627226,85.65913819926067
3.52,0.11909686294255444,0.027415256600465406,84.88322776907899
3.53,0.07097986395743817,0.0494019292780572,84.130205552177
3.54,0.06398102774142125,-0.03220838755577857,83.45729208175395
3.55,0.007173807121417334,0.0036856272118506476,82.90568614171329
3.56,0.04024330824209724,-0.0403058739424061,82.43418894815156
3.57,0.001399767243203382,-0.002106072692486084,82.03135639442893
3.58,0.020529919566982937,-0.06692227538365264,81.69261083788943
3.59,-0.0020996508648050733,-0.011365530219795592,81.31266649744649
3.6,0.029803377553205345,-0.05591986114532017,80.86176869583647
3.61,-0.061239816890147965,-0.02120597331744609,80.42460382219429
3.62,-0.14586741146881912,-0.08023047610427592,80.03092655378353
3.63,0.09996671061877488,0.1437213054631021,79.77228974372296
3.64,1.2242131014516247,0.3943076442707998,79.62809400006088
3.65,1.9600240822955357,0.313859298577646,79.48160943507084
3.66,1.386002865311882,0.08874554586958604,79.23441673165013
3.67,0.15327451313077034,-0.2874062993280579,78.8750717831589
3.68,-0.008456927094353767,-0.2677254131327569,78.51572683466767
3.69,0.03791036283675826,-0.05014631704005659,78.22275770468758
3.7,0.08894354357854824,-0.057081832286002145,77.98700910790672
3.71,0.05529080610653359,0.005410428123800458,77.77414872440555
3.72,0.08369441641653555,-0.0420306748543559,77.59333183949595
3.73,0.06398102774142125,0.018155799073155898,77.49262370106528
3.74,0.09069325263255247,-0.025835702081100843,77.35758324271508
3.75,0.0820030309976648,0.024510328748760465,77.14472285921391
3.76,0.10457427779431934,-0.022367944458128067,76.93186247571275
3.77,0.0883603072272135,0.036093728557433924,76.73044619885142
3.78,0.1277870845774421,-0.007316787026481827,76.58396163386138
3.79,0.13239465175298656,0.062129144428339486,76.50385288738244
3.8,0.14458429149588267,0.007153384834823424,76.33676893044067
3.81,0.13012002998278105,0.06501591648097127,76.12390854693949
3.82,0.17415437450855412,0.021042571125787685,75.87671584351878
3.83,0.16954680733300967,0.07601833071930375,75.62952314009807
3.84,0.2135811518587827,0.035512742987092935,75.43726214854863
3.85,0.22577079160167884,0.11594293288117356,75.31366579683827
3.86,0.2709716088301214,0.07776128743032672,75.57230260689883
3.87,0.2837444849243522,0.14951300536743883,77.15616696585377
3.88,0.3278371530852588,0.11594293288117356,82.18699624473085
3.89,0.3434678873010299,0.19464832186330439,90.08342982622582
3.9,0.38639408275926695,0.15356174856075258,97.8448229493706
3.91,0.355657527043926,0.1952293074336454,104.04523992684013
3.92,0.3684304031381569,0.12347758949653327,108.06441017875466
3.93,0.3162307496936974,0.15702950618372535,110.42418496789128
3.94,0.2797201541001425,0.054612643612052945,111.63726027171514
3.95,0.19795041764301163,0.08006707391261751,111.92794058036728
3.96,0.14925018230656062,-0.01252750136047757,111.63726027171514
3.97,0.12428766646943364,0.051707715760348,110.79497402302235
3.98,0.09588405615943167,-0.03856291723138313,109.51323407935939
3.99,0.05704051516053782,0.0065723992644824356,107.6936211236236
4.0,0.06053993326854628,-0.060549589908974924,105.41395508096592
4.01,0.04660058447164593,0.007153384834823424,102.66279184474651
4.02,0.05529080610653359,-0.05882478899702511,99.64154769182669
4.03,0.04368440271497222,-0.0015250871221450955,96.58597121898734
4.04,0.07325448572764366,-0.048403360329033626,93.89202851596717
4.05,0.03324447202608032,-0.01252750136047757,91.61007365198152
4.06,0.05587404245786834,-0.053614074663029365,89.91405704795608
4.07,0.04426763906630696,0.008896341545846391,88.62316181898125
4.08,0.06398102774142125,-0.04782237475869264,87.7465432503689
4.09,0.049516766228319645,0.008315355975505402,87.23155845157575
4.1,0.050683238930989125,-0.052452103522347394,86.82643707652514
4.11,0.03266123567474558,0.0031046416415096588,86.3778280962431
4.12,0.0489335298769849,-0.05129013238166542,85.86055447612199
4.13,0.03155308660720957,0.01699382793247392,84.80540784392802
4.14,0.025720723093862145,-0.0617115610496569,83.51222379362522
4.15,0.015280792404970255,0.007734370405164412,82.54634119322208
4.16,0.034994181080084556,-0.046097573846742824,81.87342772279902
4.17,0.011839697932095274,0.005410428123800458,81.41337463587715
4.18,0.022804541337188435,-0.060549589908974924,81.05402968738592
4.19,0.006590570770082591,-0.0009441015518041068,80.78394877068551
4.2,0.027470432147866375,-0.04782237475869264,80.62602009905561
4.21,0.02455425039119266,0.020461585555446696,80.70612884553455
4.22,0.007757043472752076,-0.06345451776067987,81.06547379402576
4.23,-0.0003499418108008455,0.0042666127821916365,81.73838726444882
4.24,-0.0015164145134703307,-0.06980904743628442,82.56922940650176
4.25,0.000233294540533897,0.004829442553459469,83.63582014533559
4.26,0.020529919566982937,-0.054195060233370354,84.75963141736864
4.27,-0.0015164145134703307,-0.006735801456140838,85.8147780495626
4.28,0.014697556053635511,-0.053614074663029365,86.72572893809448
4.29,0.002566239945872867,-0.003268043833168062,87.39864240851753
4.3,0.01125646158076053,-0.05824380342668412,87.82665199684784
4.31,-0.0020996508648050733,0.012364099168819167,87.99373595378961
4.32,0.004840861716078363,-0.0594057745673661,87.9273601352785
4.33,0.007173807121417334,0.019880599985105708,87.64583511193824
4.34,0.01411431970230077,-0.051871117952006406,87.17433791837651
4.35,0.01644726510763974,0.01871862884442373,86.59068847974427
4.36,0.06514750044409075,-0.026416687651441832,85.94981850791281
4.37,0.07214633666010765,0.024510328748760465,85.18764100569894
4.38,0.08952677992988298,-0.025254716510759855,84.42317468215711
4.39,0.15327451313077034,0.07718030185998573,83.70448478517467
4.4,0.10457427779431934,0.005991413694141447,83.07505891998304
4.41,0.06689720949809497,0.07718030185998573,82.4685212680711
4.42,0.04251793001230273,0.021042571125787685,81.89631593607872
4.43,0.008340279824086819,0.02797808637173324,81.44770695579669
4.44,-0.0391934828096947,-0.0617115610496569,81.03114147410622
4.45,-0.05313283160659504,-0.003268043833168062,80.58253249382419
4.46,-0.05546577701193402,-0.07906850496359394,80.11103530026246
4.47,-0.05488254066059928,-0.002106072692486084,79.62809400006088
4.48,-0.05079988620125608,-0.07501976177028018,79.21152851837043
4.49,-0.0659057077008259,-0.018882031036082134,78.93000349503018
4.5,-0.07284622028170934,-0.0813924472449579,78.67136668496961
4.51,-0.24215973307418512,-0.04435461713571986,78.44706219482859
4.52,-0.0960590270648321,-0.026416687651441832,78.25709002460712
4.53,0.7447344970193328,0.29766432580439095,78.07627313969752
4.54,1.7820203478681724,0.2739346964157762,77.88630096947605
4.55,1.6080409442650188,0.21665315033996935,77.59333183949595
4.56,0.3399684691930214,-0.22838179654122806,77.26831921092428
4.57,-0.11168976128060319,-0.2648386410801251,76.99823829422387
4.58,-0.09716717613236811,-0.1629846082797205,76.762489697443
4.59,-0.034585915634150234,-0.01194651579013658,76.58396163386138
4.6,-0.031086497526141777,-0.06866523209467561,76.39170064231193
4.61,-0.04963341349858659,-0.0055738303154588605,76.21317257873031
4.62,-0.05021664984992133,-0.05882478899702511,76.03235569382072
4.63,-0.04385937362037264,0.0036856272118506476,75.87671584351878
4.64,-0.021813039539919372,-0.05477604580371134,75.71878717188888
4.65,-0.024145984945258343,0.018155799073155898,75.54941439361913
4.66,0.0060073344187478485,-0.032771217327046395,75.40521864995705
4.67,0.0060073344187478485,0.030302028653097196,75.29077758355858
4.68,0.012947846999631285,-0.03220838755577857,75.1465818398965
4.69,0.02455425039119266,0.0395614861804067,75.0115413815463
4.7,0.045434111768976444,-0.011365530219795592,74.86505681655623
4.71,0.045434111768976444,0.046497001426352255,74.75290457148573
4.72,0.07039662760610342,-0.009622573508772627,74.62930821977537
4.73,0.08602736182187452,0.07427537400828078,74.42789194291406
4.74,0.1039910414429846,0.02567229988944244,74.20129863144507
4.75,0.14283458244187844,0.11131320411751881,74.11203459965425
4.76,0.1701300436843444,0.05866138680536671,74.61786411313552
4.77,0.2054741665752298,0.14604524774446606,77.13327875257407
4.78,0.21708056996679118,0.08239101619398147,83.69304067853481
4.79,0.2460674166281279,0.16977487713308081,91.85726635540223
4.8,0.25767382001968925,0.1026347321605503,99.00067771999521
4.81,0.23621072229057072,0.14604524774446606,104.28098852362099
4.82,0.22168813714233565,0.07485635957862177,107.60435709183278
4.83,0.1724046654545499,0.10842643206488703,109.50178997271955
4.84,0.11326449942920701,0.009459171317114223,110.43562907453112
4.85,0.07039662760610342,0.05691843009434374,110.6027130314729
4.86,0.017030501458974483,-0.03683811631943332,109.95268777432955
4.87,-0.009623399797023252,0.022204542266469663,108.73961247050568
4.88,-0.01603899966170542,-0.051871117952006406,107.04359586648025
4.89,-0.038610246458359955,0.0001997137898047149,104.91956967412449
4.9,-0.027587079418133324,-0.06345451776067987,102.23707107774418
4.91,-0.03400267928281549,-0.003268043833168062,99.11282996506573
4.92,-0.03686053740435573,-0.06750326095399363,95.90161364192444
4.93,-0.03341944293148075,-0.008478758167163805,92.85748127572492
4.94,-0.012539581553696964,-0.06229254661999789,90.33062252964653
4.95,-0.0235627485939236,-0.0038490294035090503,88.35308090228084
4.96,-0.024729221296593083,-0.07329496085833036,86.90425700167611
4.97,-0.015455763310370678,0.0031046416415096588,86.0184831477519
4.98,-0.005599068972813528,-0.05072730261039758,85.35472496264072
4.99,-0.01137310885102748,0.011783113598478178,84.75963141736864
5.0,-0.01370605425636645,-0.06345451776067987,84.130205552177
5.01,-0.01137310885102748,0.01699382793247392,83.4458479751141
5.02,-0.018313621431910915,-0.0594057745673661,82.81642210992248
5.03,-0.022396275891254112,0.0065723992644824356,82.23277267129025
5.04,-0.020646566837249886,-0.057081832286002145,81.54841509422734
5.05,-0.0235627485939236,0.0065723992644824356,80.84116930388475
5.06,-0.02700384306679858,-0.06517931867262967,80.11103530026246
5.07,-0.027587079418133324,-0.0055738303154588605,79.50449764835054
5.08,-0.017147148729241432,-0.06866523209467561,79.16575209181103
5.09,-0.035169151985484974,-0.02120597331744609,79.05359984674052
5.1,-0.01662223601304016,-0.07155200414730739,79.23441673165013
5.11,-0.02589569399926257,-0.002687058262827073,79.8295102769222
5.12,-0.03225297022881126,-0.07676271848130314,80.68324063225485
5.13,-0.022396275891254112,-0.007316787026481827,81.69261083788943
5.14,-0.02933678847213755,-0.08197343281529888,82.72715807813167
5.15,-0.019480094134580402,-0.000363115981463118,83.94023338195554
5.16,-0.018313621431910915,-0.06866523209467561,85.1761968990591
5.17,-0.017147148729241432,0.00252365607116867,86.28627524312432
5.18,0.026303959445196888,-0.03683811631943332,87.16289381173667
5.19,0.07792037653832161,0.041867272662697505,87.69161153849764
5.2,0.08486088911920504,-0.03393318846772837,87.9044719219988
5.21,0.11501420848321123,0.046497001426352255,87.81520789020799
5.22,0.14575076419855215,0.01120212802813719,87.45586294171677
5.23,0.0976337652134359,0.07427537400828078,86.91570110831596
5.24,0.04776705717431542,0.0013616849304866924,86.2656758511726
5.25,0.025137486742527405,0.04477220051440245,85.61336177270128
5.26,-0.019480094134580402,-0.06576030424297066,84.94044830227823
5.27,-0.04502584632304212,0.0001997137898047149,84.22175840529579
5.28,-0.05546577701193402,-0.0808114616746169,83.51222379362522
5.29,-0.052549595255260304,-0.0049928447451178725,82.86219853648187
5.3,-0.05604901336326876,-0.08544119043827166,82.27854909784963
5.31,-0.07284622028170934,-0.03625713074909233,81.69261083788943
5.32,-0.05546577701193402,-0.08890894806124444,81.13184961253688
5.33,-0.15053330227949704,-0.032771217327046395,80.78394877068551
5.34,-0.21894692629106235,-0.10454109106323166,80.43604792883414
5.35,0.12084657199655865,0.15819147732440733,80.01948244714369
5.36,1.2833532674769674,0.37983747240949456,79.5823175735015
5.37,1.9159314141346293,0.26814299651143947,79.14515269985931
5.38,1.0891355624824983,0.04361022937372047,78.78580775136808
5.39,0.012422934283430016,-0.2960847712850264,78.51572683466767
5.4,-0.07284622028170934,-0.24631972602550609,78.23420181132742
5.41,-0.03633562468815446,-0.0420306748543559,78.00989732118641
5.42,-0.012539581553696964,-0.07848751939325295,77.84052454291667
5.43,-0.02933678847213755,-0.01252750136047757,77.69632879925457
5.44,-0.022979512242588856,-0.07329496085833036,77.50406780770514
5.45,-0.022396275891254112,0.00252365607116867,77.20194339241316
5.46,-0.002682887216139816,-0.04493560270606085,76.8975301557932
5.47,-0.004432596270144043,0.019880599985105708,76.68466977229204
5.48,0.0019830035945381246,-0.05591986114532017,76.57251752722152
5.49,0.010673225229425789,0.019880599985105708,76.49469760207056
5.5,0.023971014039857918,-0.04319264599503788,76.33676893044067
5.51,0.046017348120311184,0.047077986996693244,76.21317257873031
5.52,0.04835029352565016,-0.02757865879212381,76.06668801374026
5.53,0.03732712648542352,0.038980500610065714,75.8080512036797
5.54,0.08952677992988298,0.00252365607116867,75.48303857510801
5.55,0.09880023791610539,0.07313155866667195,75.1465818398965
5.56,0.13128650268545056,0.026253285459783428,74.93143263506735
5.57,0.14866694595522587,0.11479911753956475,74.84216860327655
5.58,0.18751048695411973,0.06501591648097127,75.07791720005741
5.59,0.20430769387256031,0.13736677578749754,76.32532482380081
5.6,0.24665065297946262,0.09106948815094999,80.55964428054449
5.61,0.255924110965685,0.1599344340354303,88.00518006042947
5.62,0.28549419397835646,0.10900741763522802,95.50793637351367
5.63,0.2837444849243522,0.17612940680868538,101.48404886084218
5.64,0.2791369177488078,0.09511823134426375,105.66114778438663
5.65,0.21533086091278694,0.11363714639888277,108.17656242382517
5.66,0.20086659939968532,0.042448258233038494,109.60478693247818
5.67,0.12312119376676416,0.07196958752598998,110.07628412603991
5.68,0.07558743113298264,-0.026416687651441832,109.86113492121076
5.69,0.018196974161643967,0.01120212802813719,109.15388913086817
5.7,0.003674389013408878,-0.07501976177028018,107.99803436024355
5.71,-0.005599068972813528,-0.0015250871221450955,106.34779418277749
5.72,-0.01370605425636645,-0.07560074734062117,104.16883627855047
5.73,-0.0235627485939236,-0.013108486930818558,101.40394011436325
5.74,0.007757043472752076,-0.06113057547931591,98.41702828136297
5.75,-0.0235627485939236,-0.01425230227242738,95.55371280007306
5.76,-0.002682887216139816,-0.07329496085833036,93.00396584071498
5.77,-0.003849359918809301,0.0001997137898047149,90.90282786163893
5.78,0.003674389013408878,-0.06113057547931591,89.29836411073227
5.79,-0.006182305324148271,0.0007806993601457037,88.06240059362871
5.8,0.002566239945872867,-0.06750326095399363,87.18578202501637
5.81,-0.013122817905031708,0.0013616849304866924,86.46709212803393
5.82,0.015280792404970255,-0.05014631704005659,85.83766626284229
5.83,0.002566239945872867,0.01757481350281491,85.27690503748975
5.84,-0.009623399797023252,-0.06922806186594344,84.78251963064832
5.85,-0.017147148729241432,-0.0015250871221450955,84.2652460105272
5.86,-0.010206636148357994,-0.06345451776067987,83.60377664674401
5.87,-0.031086497526141777,0.00252365607116867,82.88508674976157
5.88,-0.020063330485915142,-0.060549589908974924,81.99702407450938
5.89,-0.03166973387747652,0.008896341545846391,81.06547379402576
5.9,-0.020063330485915142,-0.06229254661999789,80.35822800368318
5.91,-0.042692900917703155,-0.006154815885799849,79.94166252199271
5.92,-0.012539581553696964,-0.052452103522347394,79.84095438356205
5.93,-0.027587079418133324,0.015250871221450956,80.06525887370307
5.94,-0.024729221296593083,-0.056500846715661156,80.63746420569547
5.95,-0.03166973387747652,0.018155799073155898,81.5369709875875
5.96,-0.04619231902571161,-0.06980904743628442,82.47996537471096
5.97,-0.046717231741912876,0.0036856272118506476,83.41151565519456
5.98,-0.04730046809324762,-0.06980904743628442,84.25380190388736
5.99,-0.05832363513347426,-0.0055738303154588605,85.05260054734873
6.0,-0.04619231902571161,-0.06808424652433462,85.89488679604153
6.01,-0.04905017714725185,0.0042666127821916365,86.73717304473433
6.02,-0.019480094134580402,-0.04666040361801066,87.41008651515737
6.03,0.03096985025587483,0.034931757416751946,87.7465432503689
6.04,0.052957860701194626,-0.03798193166104214,87.6572792185781
6.05,0.05470756975519885,0.038399515039724726,87.23155845157575
6.06,0.1173471538885502,0.008315355975505402,86.64790901294351
6.07,0.05587404245786834,0.06329111556902146,85.91777500932123
6.08,0.03732712648542352,0.026253285459783428,85.26546093084991
6.09,-0.0032661235674745583,0.06908281547335819,84.59254746042686
6.1,-0.03686053740435573,-0.054195060233370354,83.89445695539614
6.11,-0.08211967826793175,0.0106211424577962,83.23298759161294
6.12,-0.0659057077008259,-0.051871117952006406,82.626449939701
6.13,-0.09139313625415416,0.0007806993601457037,81.99702407450938
6.14,-0.09022666355148468,-0.07848751939325295,81.39048642259745
6.15,-0.10644063411859052,-0.02699767322178282,80.93043333567556
6.16,-0.0786202601599233,-0.08023047610427592,80.55964428054449
6.17,-0.1221296919694951,-0.020044002176764112,80.21174343869312
6.18,-0.2636228308033036,-0.11496251973122315,79.8295102769222
6.19,-0.08445262367327072,0.08353483153559028,79.4472771151513
6.2,0.8827282177451329,0.29708334023405,79.11082037993977
6.21,1.7953181366786044,0.33065341272031523,78.7629195380884
6.22,1.4874859904441273,0.12115364721516932,78.42646280287687
6.23,0.18109488708943755,-0.21970332458425954,78.15638188617646
6.24,-0.11629732845614767,-0.3059252143826769,77.9206332893956
6.25,-0.061239816890147965,-0.05766281785634313,77.68488469261473
6.26,-0.03400267928281549,-0.08486020486793067,77.50406780770514
6.27,-0.058906871484809,-0.01194651579013658,77.42624788255418
6.28,-0.04035995551236418,-0.0617115610496569,77.30265153084382
6.29,-0.04905017714725185,-0.0038490294035090503,77.04401472078325
6.3,-0.04210966456636841,-0.06287353219033888,76.7396014841633
6.31,-0.031086497526141777,0.014088900080768978,76.47180938879087
6.32,-0.022396275891254112,-0.04782237475869264,76.23606079201001
6.33,-0.010206636148357994,0.03435077184641096,75.98886808858929
6.34,-0.004432596270144043,-0.0403058739424061,75.85382763023908
6.35,0.0030911526620741353,0.03723754389904275,75.86527173687894
6.36,0.025720723093862145,-0.031046416415096586,75.84238352359924
6.37,0.03849359918809301,0.05749941566468473,75.64096724673792
6.38,0.04835029352565016,-0.010203559079113614,75.32510990347812
6.39,0.058790224214542046,0.05749941566468473,74.9886531682666
6.4,0.10574075049698882,0.021623556696128674,74.70712814492634
6.41,0.1370605425636645,0.12115364721516932,74.60642000649568
6.42,0.1526912767794356,0.04593417165508442,74.85361270991639
6.43,0.17473761085988887,0.128688303830529,76.00031219522914
6.44,0.2281037370070178,0.09221330349255881,80.03092655378353
6.45,0.24431770757412366,0.17612940680868538,87.49019526163632
6.46,0.26928022341125063,0.12115364721516932,95.1371473183826
6.47,0.2727213178841256,0.19755324971500934,101.29178786929275
6.48,0.27038837247878666,0.1118941896878598,105.60621607251535
6.49,0.2281037370070178,0.1500939909377798,108.16511831718532
6.5,0.1805699743732363,0.038399515039724726,109.59334282583832
6.51,0.09880023791610539,0.06329111556902146,109.9412436676897
6.52,0.058790224214542046,-0.03509515960841035,109.7833149960598
6.53,-0.002682887216139816,0.008315355975505402,109.13100091758848
6.54,-0.009040163445688509,-0.05535703137405233,108.04152196547497
6.55,-0.027587079418133324,0.00252365607116867,106.40272589464877
6.56,-0.020063330485915142,-0.06459833310228869,104.32447612885241
6.57,-0.04730046809324762,-0.007897772596822816,101.71979745762305
6.58,-0.03400267928281549,-0.06808424652433462,98.82214965641359
6.59,-0.04619231902571161,-0.01194651579013658,95.91305774856428
6.6,-0.046717231741912876,-0.07213298971764838,93.35186668256635
6.61,-0.04905017714725185,-0.007316787026481827,91.09508885318837
6.62,-0.035169151985484974,-0.0709710185769664,89.45400396103419
6.63,-0.0391934828096947,0.0001997137898047149,88.29814919040957
6.64,-0.029920024823472294,-0.06634128981331165,87.43297472843707
6.65,-0.051966358903925564,-0.013689472501159547,86.74861715137418
6.66,-0.026478930350597313,-0.048984345899374615,86.18556710469366
6.67,-0.06532247134949117,-0.007316787026481827,85.71406991113194
6.68,-0.0484669407959171,-0.05535703137405233,85.1761968990591
6.69,-0.07051327487637038,-0.002687058262827073,84.52388282058777
6.7,-0.05604901336326876,-0.052452103522347394,83.89445695539614
6.71,-0.06759709311969667,0.00252365607116867,83.27647519684436
6.72,-0.06993003852503563,-0.07039003300662541,82.52574180127034
6.73,-0.07459592933571357,-0.0055738303154588605,81.43626284915683
6.74,-0.05079988620125608,-0.05591986114532017,80.20029933205328
6.75,-0.07687055110591907,0.0001997137898047149,79.52509704030226
6.76,-0.06357276229548693,-0.05998676013770709,79.39234540328002
6.77,-0.08445262367327072,-0.013108486930818558,79.77228974372296
6.78,-0.0763456383897178,-0.07213298971764838,80.47038024875368
6.79,-0.08153644191659701,-0.007316787026481827,81.28977828416679
6.8,-0.06759709311969667,-0.06750326095399363,82.09773221294004
6.81,-0.08328615097060124,-0.0038490294035090503,82.82786621656233
6.82,-0.06701385676836191,-0.06517931867262967,83.62666486002371
6.83,-0.0681803294710314,0.0013616849304866924,84.61314685237858
6.84,-0.061239816890147965,-0.0594057745673661,85.62480587934112
6.85,-0.0786202601599233,0.0001997137898047149,86.51286855459331
6.86,-0.07459592933571357,-0.07560074734062117,87.18578202501637
6.87,-0.09314284530815839,-0.017157230124132325,87.53368286686774
6.88,-0.06240628959281745,-0.0617115610496569,87.46730704835662
6.89,-0.05949010783614374,0.001942670500827681,87.05074156666616
6.9,0.01125646158076053,-0.04666040361801066,86.48998034131361
6.91,0.00892351617542156,0.007153384834823424,85.83766626284229
6.92,0.05184971163365861,-0.03162740198543758,85.21968450429051
6.93,0.08083655829499532,0.06792084433267621,84.51243871394792
6.94,0.04718382082298067,0.00252365607116867,83.70448478517467
6.95,-0.006765541675483013,0.06445308670970344,82.96290667491253
6.96,-0.022979512242588856,-0.018319201264814303,82.3792572362803
6.97,-0.08211967826793175,-0.01425230227242738,81.82765129623964
6.98,-0.10008335788904182,-0.0738577906295982,81.30122239080663
6.99,-0.1168805648074824,-0.016576244553791336,80.67179652561501
7.0,-0.10183306694304604,-0.07906850496359394,80.21174343869312
7.01,-0.12271292832082983,-0.03625713074909233,79.87528670348159
7.02,-0.09950012153770708,-0.08023047610427592,79.5365411469421
7.03,-0.1221296919694951,-0.03220838755577857,79.21152851837043
7.04,-0.17024669095461134,-0.10742786311586346,78.93000349503018
7.05,-0.29605077193751533,-0.060549589908974924,78.61643497309834
7.06,-0.012539581553696964,0.06559690205131226,78.27997823788682
7.07,1.0856361443744897,0.4006803297454775,78.02134142782626
7.08,1.8278044014479498,0.2328481231132244,77.75126051112585
7.09,1.152300059332051,0.11999167607448734,77.53840012762468
7.1,0.018196974161643967,-0.3585951874939022,77.34613913607524
7.11,-0.16908021825194186,-0.24110901169151033,77.13327875257407
7.12,-0.08503586002460546,-0.12536579260014147,76.80826612400239
7.13,-0.06415599864682169,-0.026416687651441832,76.53818520730198
7.14,-0.08445262367327072,-0.09237670568421721,76.35965714372036
7.15,-0.0856190963759402,-0.01425230227242738,76.20172847209047
7.16,-0.06240628959281745,-0.05882478899702511,76.03235569382072
7.17,-0.07109651122770512,-0.000363115981463118,75.81949531031954
7.18,-0.05021664984992133,-0.04261166042469689,75.65012253204979
7.19,-0.06415599864682169,0.010040156887455211,75.54941439361913
7.2,-0.038027010107025215,-0.0420306748543559,75.35944222339766
7.21,-0.03283620658014601,0.02567229988944244,75.16718123184822
7.22,0.0019830035945381246,-0.02699767322178282,75.05502898677771
7.23,-0.03633562468815446,-0.0049928447451178725,74.93143263506735
7.24,0.008340279824086819,-0.024092745370077877,74.76434867812557
7.25,0.006590570770082591,0.03667471412777491,74.57208768657614
7.26,0.05184971163365861,0.005410428123800458,74.34778319643512
7.27,0.050100002579654385,0.059823357946048684,74.15781102621365
7.28,0.08486088911920504,0.02914005751241522,74.10059049301441
7.29,0.12428766646943364,0.11652391845151455,74.3042955912037
7.3,0.15969011299545252,0.06675887319199424,75.29077758355858
7.31,0.17998673802190154,0.14951300536743883,79.0101122415091
7.32,0.21299791550744798,0.10784544649454604,86.23134353125306
7.33,0.2118314428047785,0.1593534484650893,93.68832341777788
7.34,0.2240210825476746,0.10610248978352307,99.98944853367807
7.35,0.18284459614344178,0.12289660392619228,104.21232388378189
7.36,0.18751048695411973,0.07138860195564899,106.94288772804958
7.37,0.1109898776590015,0.07948608834227652,108.43519923388573
7.38,0.052957860701194626,-0.009059743737504794,108.9639169606467
7.39,0.004840861716078363,0.022785527836810652,108.84032060893634
7.4,-0.010789872499692738,-0.03914390280172412,108.04152196547497
7.41,-0.06240628959281745,-0.009059743737504794,106.78495905641968
7.42,-0.0763456383897178,-0.08255441838563987,105.06605423911454
7.43,-0.10299953964571554,-0.03567614517875134,102.93287276144692
7.44,-0.05546577701193402,-0.06113057547931591,100.24808534373862
7.45,-0.0681803294710314,-0.019463016606423123,97.37332575580886
7.46,-0.05774039878213951,-0.07039003300662541,94.4985661678791
7.47,-0.07401269298437883,-0.02872247413373263,91.85726635540223
7.48,-0.056573926079470024,-0.07964949053393493,89.56615620610471
7.49,-0.05021664984992133,-0.0049928447451178725,87.87013960207926
7.5,-0.03686053740435573,-0.06922806186594344,86.64790901294351
7.51,-0.06532247134949117,-0.022948930028469056,85.82622215620245
7.52,-0.058906871484809,-0.07906850496359394,85.23112861093036
7.53,-0.0484669407959171,-0.0015250871221450955,84.67036738557782
7.54,-0.061239816890147965,-0.07734370405164413,84.14164965881685
7.55,-0.06876356582236615,-0.015414273413109358,83.64726425197543
7.56,-0.06473923499815643,-0.0738577906295982,82.99723899483207
7.57,-0.07459592933571357,-0.022367944458128067,82.3334808097209
7.58,-0.06357276229548693,-0.07676271848130314,81.62623501937831
7.59,-0.08672724544347622,-0.02930345970407362,80.79539287732536
7.6,-0.08211967826793175,-0.07618173291096215,80.03092655378353
7.61,-0.0722629839303746,-0.01194651579013658,79.57087346686164
7.62,-0.060073344187478485,-0.06750326095399363,79.4015006885919
7.63,-0.07687055110591907,-0.009622573508772627,79.62809400006088
7.64,-0.06643062041702717,-0.06634128981331165,80.15452290549388
7.65,-0.10358277599705028,-0.03220838755577857,80.95332154895526
7.66,-0.06357276229548693,-0.07271397528798937,81.77271958436836
7.67,-0.08328615097060124,-0.018882031036082134,82.71571397149182
7.68,-0.07459592933571357,-0.07618173291096215,83.74797239040609
7.69,-0.08211967826793175,-0.018882031036082134,84.87178366243914
7.7,-0.060073344187478485,-0.06345451776067987,85.98415082783235
7.71,-0.06759709311969667,-0.007316787026481827,86.9271452149558
7.72,-0.009623399797023252,-0.053614074663029365,87.62294689865855
7.73,0.04310116636363748,0.03667471412777491,88.05095648698885
7.74,0.04776705717431542,-0.0206249877471051,88.0852888069084
7.75,0.09011001628121772,0.038399515039724726,87.82665199684784
7.76,0.052957860701194626,-0.017738215694473314,87.42153062179723
7.77,0.017613737810309223,0.04998291484839819,86.7921047566056
7.78,0.013531083350966026,0.018155799073155898,86.07341485962316
7.79,-0.03341944293148075,0.026834271030124417,85.36616906928056
7.8,-0.05715716243080477,-0.05303308909268838,84.59254746042686
7.81,-0.09891688518637233,-0.02178695888778708,83.91734516867584
7.82,-0.08328615097060124,-0.06866523209467561,83.36802804996314
7.83,-0.11052328857793371,-0.030465430844755597,82.86219853648187
7.84,-0.08847695449748044,-0.06287353219033888,82.29914848980135
7.85,-0.10644063411859052,-0.019463016606423123,81.71549905116912
7.86,-0.09658393978103337,-0.07443877619993919,81.16618193245642
7.87,-0.2508499547090728,-0.04319264599503788,80.67179652561501
7.88,-0.18587742517038244,-0.07155200414730739,80.32389568376364
7.89,0.2999584554914581,0.2125862513475824,79.99888305519195
7.9,1.5524001963476843,0.4029861162277683,79.66013749865246
7.91,1.8434934592988543,0.24615632383384767,79.36945719000033
7.92,0.6832613855886509,-0.05882478899702511,78.99866813486926
7.93,-0.0786202601599233,-0.28161459942372113,78.717143111529
7.94,-0.10183306694304604,-0.19018199529130803,78.52717094130753
7.95,-0.04385937362037264,-0.02178695888778708,78.36924226967763
7.96,-0.03686053740435573,-0.06576030424297066,78.22275770468758
7.97,-0.060073344187478485,-0.0055738303154588605,78.07627313969752
7.98,-0.028170315769468064,-0.0403058739424061,77.87485686283621
7.99,-0.04210966456636841,0.01120212802813719,77.63910826605535
8.0,-0.04152642821503367,-0.05129013238166542,77.38047145599478
8.01,-0.03575238833681972,0.012945084739160156,77.17905517913346
8.02,-0.0050158326214787856,-0.02757865879212381,76.97763890227213
8.03,-0.011956345202362223,0.022204542266469663,76.83115433728209
8.04,0.014697556053635511,-0.018882031036082134,76.68466977229204
8.05,0.011839697932095274,0.03260781513538799,76.50385288738244
8.06,0.035577417431419296,-0.01252750136047757,76.30243661052111
8.07,0.03907683553942775,0.054612643612052945,76.12390854693949
8.08,0.064564264092756,0.011783113598478178,75.89731523547051
8.09,0.07617066748431738,0.07427537400828078,75.65012253204979
8.1,0.1109898776590015,0.04130444289142967,75.3937745433172
8.11,0.12253795741542942,0.10205374659020931,75.30222169019842
8.12,0.18109488708943755,0.08469680267627226,75.74167538516858
8.13,0.1735711381572194,0.12752633268984703,77.69632879925457
8.14,0.22693726430434832,0.10495867444191424,82.98579488819223
8.15,0.2315448314798928,0.16861290599239884,90.30773431636683
8.16,0.25300792920901133,0.10784544649454604,97.137577159028
8.17,0.23912690404724443,0.1599344340354303,102.3698227147664
8.18,0.2565073473170198,0.10726446092420505,105.86485288257592
8.19,0.17765379261656258,0.10784544649454604,107.8057733686941
8.2,0.12953679363144632,0.021623556696128674,108.72816836386583
8.21,0.05587404245786834,0.029721043082756207,108.87465292885588
8.22,0.03674389013408878,-0.023511759799736888,108.41231102060604
8.23,-0.02122980318858463,-0.002687058262827073,107.51509306004196
8.24,-0.01603899966170542,-0.05303308909268838,106.35694946808937
8.25,-0.051966358903925564,-0.01483328784276837,104.91956967412449
8.26,-0.030503261174807034,-0.06113057547931591,102.80927640973655
8.27,-0.05079988620125608,-0.010784544649454603,100.22519713045892
8.28,-0.027587079418133324,-0.05882478899702511,97.42825746768013
8.29,-0.05371606795792979,-0.024092745370077877,94.75491415661169
8.3,-0.01662223601304016,-0.052452103522347394,92.40887229544289
8.31,-0.03977671916102944,-0.01425230227242738,90.52059469986801
8.32,-0.035169151985484974,-0.06692227538365264,89.29836411073227
8.33,-0.038027010107025215,0.0001997137898047149,88.52245368055058
8.34,-0.024729221296593083,-0.046097573846742824,87.93880424191835
8.35,-0.03400267928281549,0.0031046416415096588,87.41008651515737
8.36,-0.020063330485915142,-0.0403058739424061,86.84932528980484
8.37,-0.04730046809324762,0.0013616849304866924,86.29771934976418
8.38,-0.029920024823472294,-0.04319264599503788,85.64769409262082
8.39,-0.05832363513347426,-0.010784544649454603,84.98393590750965
8.4,-0.03686053740435573,-0.05129013238166542,84.19887019201609
8.41,-0.07401269298437883,-0.01425230227242738,83.24443169825278
8.42,-0.035169151985484974,-0.03856291723138313,82.40214544956
8.43,-0.060073344187478485,-0.000363115981463118,82.08628810630019
8.44,-0.05371606795792979,-0.054195060233370354,82.08628810630019
8.45,-0.06993003852503563,-0.0009441015518041068,82.15495274613927
8.46,-0.05313283160659504,-0.04377363156537887,82.25566088456993
8.47,-0.08036996921392753,0.0031046416415096588,82.45707716143126
8.48,-0.07167974757903986,-0.05535703137405233,82.75004629141137
8.49,-0.0878937181461457,-0.0009441015518041068,83.3108075167639
8.5,-0.05488254066059928,-0.03393318846772837,84.23091369060766
8.51,-0.08731048179481096,0.005410428123800458,85.55843006083
8.52,-0.06473923499815643,-0.03509515960841035,86.837881183165
8.53,-0.09489255436216261,-0.002687058262827073,87.87013960207926
8.54,-0.07109651122770512,-0.03972488837206511,88.51100957391074
8.55,-0.09080989990281942,0.0001997137898047149,88.7467581706916
8.56,-0.05371606795792979,-0.026416687651441832,88.7467581706916
8.57,-0.04560908267437687,0.029721043082756207,88.64605003226094
8.58,0.032136322958544315,0.01120212802813719,88.45607786203946
8.59,0.015864028756304997,0.042448258233038494,88.02806827370917
8.6,0.08025332194366057,0.021623556696128674,87.47875115499647
8.61,0.04251793001230273,0.06271012999868047,86.7921047566056
8.62,0.025720723093862145,0.014088900080768978,85.9955949344722
8.63,-0.026478930350597313,0.08122904505329949,85.18764100569894
8.64,-0.042692900917703155,-0.006154815885799849,84.51243871394792
8.65,-0.10358277599705028,-0.0015250871221450955,83.89445695539614
8.66,-0.11168976128060319,-0.04724138918835165,83.26503109020452
8.67,-0.1273204954963743,-0.002106072692486084,82.59211761978146
8.68,-0.11110652492926845,-0.03914390280172412,82.12062042621973
8.69,-0.1447592624012831,-0.017157230124132325,81.87342772279902
8.7,-0.13023667725304802,-0.06229254661999789,81.61479091273846
8.71,-0.15286624768483603,-0.02930345970407362,81.27833417752694
8.72,-0.19748382856194382,-0.07039003300662541,80.8297251972449
8.73,-0.3140144515586254,-0.0420306748543559,80.33533979040348
8.74,0.004257625364743621,0.09628020248494573,79.90733020207317
8.75,1.140751979575623,0.46201061901459817,79.64869339201262
8.76,1.8765046367844007,0.258302553413789,79.52509704030226
8.77,1.0676724647533797,0.08527778824661325,79.38090129664018
8.78,-0.03166973387747652,-0.3556902596421972,79.18864030509073
8.79,-0.1749125817652893,-0.2040711815822723,79.02155634814895
8.8,-0.08386938732193598,-0.08486020486793067,78.78580775136808
8.81,-0.10877357952392948,-0.02872247413373263,78.46995040810829
8.82,-0.0878937181461457,-0.057081832286002145,78.18842538476804
8.83,-0.10994005222659897,-0.01194651579013658,77.95267678798717
8.84,-0.07978673286259277,-0.03740094609070115,77.75126051112585
8.85,-0.09716717613236811,0.0106211424577962,77.59333183949595
8.86,-0.06415599864682169,-0.022948930028469056,77.50406780770514
8.87,-0.08503586002460546,0.022204542266469663,77.48117959442544
8.88,-0.04094319186369893,-0.008478758167163805,77.39191556263462
8.89,-0.07051327487637038,0.021623556696128674,77.15616696585377
8.9,-0.028753552120802807,-0.002106072692486084,76.84259844392193
8.91,-0.03744377375569047,0.036093728557433924,76.54962931394184
8.92,0.004257625364743621,0.014088900080768978,76.32532482380081
8.93,-0.014872526959035934,0.04419121494406146,76.14450793889122
8.94,0.03791036283675826,0.03667471412777491,75.95453576866974
8.95,0.025720723093862145,0.07138860195564899,75.76456359844828
8.96,0.08661059817320926,0.07196958752598998,75.75311949180842
8.97,0.07908684924099109,0.11652391845151455,76.27954839724143
8.98,0.135894069860995,0.1026347321605503,78.26853413124697
8.99,0.14166810973920896,0.1605154196057713,83.3565839433233
9.0,0.19445099953500317,0.14777004865641585,90.60070344634694
9.01,0.19853365399434636,0.1940673362929634,97.54040971275064
9.02,0.2188302790207954,0.1512559620784618,103.06791321979712
9.03,0.1782370289678973,0.15702950618372535,106.70713913126872
9.04,0.16954680733300967,0.10553966001225523,108.86320882221604
9.05,0.08777707087587876,0.0997479601079185,109.88402313449046
9.06,0.04368440271497222,0.024510328748760465,110.11977173127133
9.07,-0.024145984945258343,0.03781852946938374,109.6253863244299
9.08,-0.06473923499815643,-0.023511759799736888,108.70528015058613
9.09,-0.10877357952392948,-0.007316787026481827,107.5494253799615
9.1,-0.09833364883503759,-0.04435461713571986,106.02049273287784
9.11,-0.1273204954963743,-0.020044002176764112,103.9330876817696
9.12,-0.10008335788904182,-0.04666040361801066,101.39478482905137
9.13,-0.12387940102349931,-0.01425230227242738,98.62988866486415
9.14,-0.09950012153770708,-0.03451417403806936,95.82379371677347
9.15,-0.13431933171239122,-0.020044002176764112,93.35186668256635
9.16,-0.11402270668594217,-0.053614074663029365,91.53225372683055
9.17,-0.11921351021282138,-0.013108486930818558,90.37639895620593
9.18,-0.1024163032943808,-0.04724138918835165,89.68975255781505
9.19,-0.11921351021282138,-0.010784544649454603,89.18621186566176
9.2,-0.1012498305917113,-0.05072730261039758,88.69182645882033
9.21,-0.10935681587526423,-0.0009441015518041068,88.2203292652586
9.22,-0.08731048179481096,-0.03509515960841035,87.81520789020799
9.23,-0.13717718983393146,-0.017738215694473314,87.49019526163632
9.24,-0.11979674656415612,-0.04724138918835165,86.9271452149558
9.25,-0.12790373184770903,-0.007316787026481827,86.14207949946224
9.26,-0.11629732845614767,-0.03509515960841035,85.14186457913955
9.27,-0.14820035687415808,-0.02757865879212381,83.98600980851492
9.28,-0.13315285900972174,-0.05824380342668412,82.96290667491253
9.29,-0.14125984429327465,-0.016576244553791336,82.31059259644121
9.3,-0.1209632192668256,-0.04782237475869264,82.07484399966035
9.31,-0.13834366253660094,-0.015414273413109358,82.23277267129025
9.32,-0.13834366253660094,-0.05477604580371134,82.69282575821212
9.33,-0.1737461090626198,-0.03972488837206511,83.21009937833324
9.34,-0.14125984429327465,-0.051871117952006406,83.78230471032563
9.35,-0.14417602604994836,-0.009059743737504794,84.51243871394792
9.36,-0.13315285900972174,-0.04493560270606085,85.41194549583996
9.37,-0.155199193090175,-0.024092745370077877,86.36638398960326
9.38,-0.14184308064460938,-0.05129013238166542,87.26360195016733
9.39,-0.1470338841714886,-0.013108486930818558,88.09673291354825
9.4,-0.13081991360438275,-0.032771217327046395,88.82457809584257
9.41,-0.15228301133350128,-0.0015250871221450955,89.33040760932384
9.42,-0.13256962265838698,-0.02814148856339164,89.42196046244263
9.43,-0.17024669095461134,-0.02120597331744609,89.08321490590312
9.44,-0.1511165386308318,-0.03972488837206511,88.52245368055058
9.45,-0.16558080014393342,-0.02872247413373263,87.73738796505702
9.46,-0.13431933171239122,-0.03683811631943332,86.87221350308454
9.47,-0.18068662164350324,-0.0403058739424061,86.2198994246132
9.48,-0.13023667725304802,-0.03625713074909233,85.65913819926067
9.49,-0.13373609536105646,0.009459171317114223,85.05260054734873
9.5,-0.06934680217370089,-0.003268043833168062,84.44606289543681
9.51,-0.0722629839303746,0.011783113598478178,83.77086060368579
9.52,-0.061239816890147965,-0.009059743737504794,83.14372355982212
9.53,0.011839697932095274,0.042448258233038494,82.58067351314162
9.54,-0.017730385080576172,0.023348357608078487,82.14350863949943
9.55,-0.06993003852503563,0.05633744452400275,81.72694315780898
9.56,-0.0919763726054889,0.04361022937372047,81.27833417752694
9.57,-0.1592235239143847,-0.0049928447451178725,80.90754512239587
9.58,-0.17316287271128505,-0.04319264599503788,80.60542070710389
9.59,-0.19170978868372987,-0.025835702081100843,80.3788273956349
9.6,-0.1864606615217172,-0.05014631704005659,80.06525887370307
9.61,-0.21433935911551788,-0.03914390280172412,79.7173580318517
9.62,-0.203899428426626,-0.06922806186594344,79.43583300851144
9.63,-0.21433935911551788,-0.0420306748543559,79.15430798517119
9.64,-0.2166139808857234,-0.07501976177028018,78.80640714331982
9.65,-0.3801534537999852,-0.0738577906295982,78.55005915458723
9.66,-0.2409932603715156,-0.018882031036082134,78.36924226967763
9.67,0.5081155092828277,0.2635132677477847,78.21131359804772
9.68,1.6254797111699275,0.314440284147987,78.0327855344661
9.69,1.537352698483248,0.19813423528535032,77.77414872440555
9.7,0.26403109624923793,-0.1942307384846218,77.50406780770514
9.71,-0.22127987169640131,-0.2781468418007484,77.27976331756412
9.72,-0.2102567046561747,-0.1409979356021287,77.06690293406295
9.73,-0.1487835932254928,-0.030465430844755597,76.85404255056179
9.74,-0.16447265107639739,-0.057081832286002145,76.63889334573264
9.75,-0.17257963635995033,-0.024673730940418866,76.48325349543072
9.76,-0.14417602604994836,-0.022948930028469056,76.34821303708051
9.77,-0.155199193090175,-0.006154815885799849,76.19028436545061
9.78,-0.14586741146881912,-0.02757865879212381,76.03235569382072
9.79,-0.1633061783737279,-0.015414273413109358,75.8309394169594
9.8,-0.12271292832082983,-0.009059743737504794,75.75311949180842
9.81,-0.1221296919694951,0.014669885651109967,75.71878717188888
9.82,-0.11629732845614767,-0.015414273413109358,75.58374671353867
9.83,-0.11518917938861166,0.0065723992644824356,75.47159446846817
9.84,-0.06993003852503563,0.0042666127821916365,75.38233043667736
9.85,-0.060073344187478485,0.0395614861804067,75.2358458716873
9.86,-0.0391934828096947,0.026253285459783428,75.06647309341756
9.87,-0.03166973387747652,0.05228870133068899,74.92227734975548
9.88,0.01125646158076053,0.05228870133068899,74.81928038999685
9.89,0.028636904850535858,0.08181003062364048,74.91083324311563
9.9,0.050100002579654385,0.07080761638530801,75.62952314009807
9.91,0.06923015490343394,0.10784544649454604,78.32346584311824
9.92,0.11851362659121968,0.12578337597882405,84.53532692722762
9.93,0.11209802672653751,0.13620480464681556,92.32876354896396
9.94,0.1567739312387788,0.13909157669944733,99.15860639162511
9.95,0.11968009929388918,0.1315750758831608,104.25810031034129
9.96,0.11443097213187649,0.10958840320556901,107.46931663348258
9.97,0.05587404245786834,0.08239101619398147,109.13100091758848
9.98,0.01644726510763974,0.047077986996693244,109.90691134777016
9.99,-0.06298952594415219,0.014669885651109967,109.86113492121076
