time_s,ECG1,ECG2,NIBP
0.0,0.2657772959777331,0.22011955167048738,90.91471334034263
0.01,0.25998361446472196,0.18829003343636372,102.48331514369104
0.02,0.29823864510478443,0.21548531920328423,105.23461324376656
0.03,0.21359233072516015,0.10033048386278215,104.59476404505072
0.04,0.27274226328398826,0.16225006052541263,103.58394129252638
0.05,0.17880932582935705,0.07832761542606127,101.94396022179941
0.06,0.11039368601325844,0.05750602193196079,100.68617812941984
0.07,0.04950774058230063,0.022197584086603377,98.48492583174917
0.08,0.04660044191692683,0.05287178946475763,97.75473869269668
0.09,-0.031666548053064285,-0.013097872715428541,95.87902370665336
0.1,-0.029930535180934605,0.014097413051491968,95.60961351772038
0.11,-0.03978188533482713,-0.014837332521045413,94.62124161427377
0.12,-0.03340256092519396,0.00889201467796685,94.52021279342391
0.13,-0.09428850635615178,-0.06402250568136131,94.27271890954302
0.14,-0.040367528231449186,0.027987129409775952,94.28394433408188
0.15,-0.08270114333012958,-0.03741136686408826,94.28394433408188
0.16,-0.05139016417858583,0.017563351619400213,94.50898736888503
0.17,-0.049654151306456146,-0.013682019665075998,94.44163482165179
0.18,-0.046746852641082345,0.019886958374664546,94.81207383143463
0.19,-0.07052813740748531,-0.03508776010882393,94.56511449157941
0.2,-0.06529918297335977,-0.0009476161627614306,94.53143821796279
0.21,-0.046746852641082345,0.008307867728319393,93.83492735252692
0.22,-0.04789722261658997,0.016992185713078256,93.1608673361688
0.23,-0.0780578317926261,-0.03508776010882393,92.36386219390873
0.24,-0.05891985856372661,0.011786787339553137,91.76838014932274
0.25,-0.09951746079027732,-0.05476702179028049,91.33005404828097
0.26,-0.06703519584548945,0.005997242016380561,91.11677098204237
0.27,-0.10819752515092572,-0.05535116873992795,90.91471334034263
0.28,-0.06994249451086325,0.023937043892220247,90.99329131211475
0.29,-0.08326587040901513,-0.06460665263100877,91.01574216119249
0.3,-0.06588482586998183,0.0013630095491774003,91.30760319920323
0.31,-0.07979384466475578,-0.029311195828976854,91.58877335670074
0.32,-0.04848286551321203,0.016992185713078256,92.01533948917796
0.33,-0.08270114333012958,-0.006737161485934007,92.46489101475859
0.34,-0.10240384363791462,-0.02352165050580428,92.90268257177469
0.35,-0.09196685058740003,-0.04666685075516908,93.25067073247979
0.36,-0.040953171128071245,0.01814749856904767,93.50939004089956
0.37,-0.086758811971011,-0.018316252132279158,93.58796801267168
0.38,-0.17372678211938702,-0.09990210943304069,93.5767425881328
0.39,-0.07864347468924815,-0.026416423167390568,93.35223409735532
0.4,-0.07400016315174468,0.0002076966932079848,93.05983851531893
0.41,-0.086758811971011,-0.06924088509821193,92.63327238284171
0.42,-0.10008218786916288,-0.021782190700187404,92.1724954327222
0.43,-0.09776053210041113,-0.020042730894570534,91.65612590393398
0.44,-0.12039144689130649,-0.02988236173529881,91.12799640658123
0.45,-0.09023083771527035,-0.0518722491286942,90.60040145325415
0.46,-0.09661016212490352,-0.006737161485934007,90.12839907859576
0.47,-0.08849482484314068,-0.03451659420250197,89.6793820970408
0.48,-0.07109286448637087,-0.004426535773995176,89.27473226961567
0.49,-0.10472549940666635,-0.05535116873992795,88.85939156167731
0.5,-0.086758811971011,-0.014837332521045413,88.48895255189447
0.51,-0.07341452025512261,-0.04203261828796592,88.15165527170258
0.52,-0.04210354110357887,0.030297755121714783,87.87101965823072
0.53,-0.08558752617776688,-0.04203261828796592,87.57915862021999
0.54,-0.06239188430798597,0.024508209798542208,87.27553761364473
0.55,-0.0751505331272523,-0.058245941401514234,87.00612742471174
0.56,-0.07920820176813372,-0.012526706809106582,86.81529520755088
0.57,-0.08849482484314068,-0.046082703805521624,86.64691383946777
0.58,-0.07458580604836673,0.0036736352611162312,86.5009833204624
0.59,-0.0693568516142412,-0.03741136686408826,86.38872907507366
0.6,-0.04559648266557473,0.05750602193196079,86.30961655927588
0.61,-0.003848510463516399,0.06212727335583845,86.24226401204263
0.62,0.036749091763034314,0.09338562568364016,86.15246061573164
0.63,0.018782404327378946,0.08239068198694247,86.00653009672627
0.64,0.010646151227879604,0.11710199183932693,85.8605995777209
0.65,-0.043839553975708545,0.01583687285710884,85.74834533233216
0.66,-0.07920820176813372,0.0002076966932079848,85.6473165114823
0.67,-0.101253473662407,-0.06981205100453389,85.56873853971018
0.68,-0.08558752617776688,-0.0049977016803171345,85.5126114170158
0.69,-0.072264150279615,-0.04030613952567455,85.50138599247693
0.7,-0.09428850635615178,-0.014266166614723456,85.47893514339918
0.71,-0.06297752720460803,-0.03451659420250197,85.4677097188603
0.72,-0.0635631701012301,0.011786787339553137,85.45648429432143
0.73,-0.07979384466475578,-0.06229602691906994,85.45648429432143
0.74,-0.040953171128071245,0.04013738596244306,85.4228080207048
0.75,0.21649962939053394,0.12289153716249951,85.37790632254931
0.76,0.7441220476115377,0.13042054229128897,85.32124465582928
0.77,0.8386406279627909,-0.2283754952255048,85.24266668405716
0.78,0.08893405701560722,-0.40894180788319656,85.15286328774617
0.79,-0.11516249245718094,-0.1751402365476332,85.01815819327967
0.8,-0.0125285748241648,0.011786787339553137,84.89467852335206
0.81,-0.01717188636166828,-0.03972199257602709,84.80487512704107
0.82,-0.04906850840983409,0.010047327533936265,84.75997342888557
0.83,-0.028194522308804922,-0.02062687784421799,84.71507173073007
0.84,-0.08326587040901513,-0.014266166614723456,84.68139545711345
0.85,-0.0212295550025497,-0.00037645025643947243,84.6589446080357
0.86,-0.037460229566075386,0.027987129409775952,84.60281748534133
0.87,-0.01137820484865718,0.026831816553806537,84.53546493810808
0.88,-0.020643912105927642,0.06850096562865848,84.45688696633596
0.89,-0.0003555689015205369,0.014681560001139425,84.37830899456384
0.9,-0.033988203821816027,0.03724261330085677,84.28797105422719
0.91,0.014139092789875466,0.05171647660878821,84.22061850699394
0.92,-0.01196384774527924,0.04477161842964622,84.18694223337732
0.93,0.03559872178752669,0.04592693128561564,84.0634625634497
0.94,0.019347131406264505,0.088751393216437,83.81650322359447
0.95,0.042542773276045415,0.04882170394720193,83.58076930827811
0.96,0.010646151227879604,0.06850096562865848,83.3674862420395
0.97,0.07558976529971884,0.07832761542606127,83.22102117900847
0.98,0.018782404327378946,0.08411716074923384,83.22102117900847
0.99,0.1080720302445067,0.12347568411214696,83.51341676104487
1.0,0.03907074753178605,0.11999676450091322,84.3558581454861
1.01,0.10110706293825149,0.11479136612738809,86.34382737691816
1.02,0.06226638940156696,0.12463099696811637,89.88143973874054
1.03,0.13532534075516903,0.13042054229128897,94.37428227441855
1.04,0.11618736752626954,0.1819163411635437,98.46247498267141
1.05,0.154442398166332,0.14546557150554235,101.64087375924981
1.06,0.18924631887987162,0.2131746934913454,103.85335148145936
1.07,0.22112202511030093,0.1871347205803943,105.23461324376656
1.08,0.22925827820980027,0.2143300063473148,106.05460377913003
1.09,0.26868459464310684,0.18018986240125232,106.36891566621851
1.1,0.26286999731235927,0.2172247790089011,106.22298514721315
1.11,0.2692493217219924,0.15646051520224005,105.67293934480831
1.12,0.25881232867147785,0.20507452245623398,104.66211659228397
1.13,0.19445435749626067,0.08354599484291188,103.3252219841066
1.14,0.13532534075516903,0.11710199183932693,101.74190258009968
1.15,0.08719804414347754,0.03262136187697911,100.05701981121722
1.16,-0.0020915817736502167,0.02855829531609791,98.42879870905479
1.17,-0.003848510463516399,-0.0368272199144408,97.01332612910531
1.18,-0.02296556787467938,0.04072153291209052,95.8565728575756
1.19,-0.01949354213042002,-0.02119804375053995,95.0029060485955
1.2,-0.03689550248718983,0.01814749856904767,94.39673312349629
1.21,-0.006734893311153699,0.01583687285710884,94.00330872061004
1.22,-0.024136853667923504,0.03898207310647365,93.79002565437142
1.23,-0.025287223643431122,-0.017732105182631703,93.74512395621592
1.24,-0.04906850840983409,0.011786787339553137,93.81247650344916
1.25,-0.0026772246702722775,0.01814749856904767,93.92473074883792
1.26,-0.05195489125747139,0.024508209798542208,94.0145341451489
1.27,0.0031164568427388233,0.000791843642855442,93.95840702245454
1.28,-0.034573846718438085,0.05750602193196079,93.73389853167704
1.29,0.014724735686497526,0.04361630557367681,93.29557243063529
1.3,-0.06009114435697073,0.014681560001139425,92.64449780738059
1.31,-0.0357242166939457,-0.026987589073712525,91.9592123664836
1.32,-0.06239188430798597,0.009463180584288808,91.40916656407876
1.33,-0.04733249553770441,-0.024092816412126235,91.01574216119249
1.34,-0.04501083976895267,0.024508209798542208,90.79123367041501
1.35,-0.04906850840983409,-0.03336128134653256,90.72388112318177
1.36,-0.08558752617776688,-0.016576792326662287,90.79123367041501
1.37,-0.024136853667923504,-0.001531763112408888,90.95961503849813
1.38,-0.06762083874211151,0.019302811425017087,91.18412352927561
1.39,-0.016021516386160662,0.01120264038990568,91.48774453585088
1.4,-0.08908046773976273,-0.02352165050580428,91.9143106683281
1.41,-0.020643912105927642,-0.001531763112408888,92.43121474114197
1.42,-0.08502279909888132,-0.004426535773995176,92.94758426993019
1.43,-0.03340256092519396,-0.017147958232984244,93.35223409735532
1.44,-0.07400016315174468,0.013513266101844511,93.56551716359394
1.45,-0.028194522308804922,-0.02814290192968194,93.58796801267168
1.46,-0.10589678519991048,-0.010203100053842253,93.46448834274406
1.47,-0.020079185027042083,-0.015421479470692872,93.22821988340205
1.48,-0.07052813740748531,-0.009631934147520295,92.93635884539131
1.49,-0.008470906183283378,0.0019471564988248575,92.58837068468621
1.5,-0.06239188430798597,0.012942100195522553,92.15004458364446
1.51,-0.037460229566075386,-0.020042730894570534,91.63367505485624
1.52,-0.04906850840983409,0.016992185713078256,91.07186928388687
1.53,-0.0386315153593195,-0.013097872715428541,90.5779506041764
1.54,-0.0809651304579999,-0.001531763112408888,90.09472280497914
1.55,-0.040367528231449186,-0.053027561984663615,89.66815667250192
1.56,-0.0983461749970332,-0.02583227621774311,89.29718311869341
1.57,-0.04210354110357887,-0.007892474341903422,88.92674410891057
1.58,-0.1128408366884292,-0.050716936272724784,88.57875594820545
1.59,-0.01949354213042002,-0.009047787197872838,88.28636036616906
1.6,-0.10589678519991048,-0.02757173602335998,88.0057247526972
1.61,-0.0125285748241648,0.012357953245875096,87.73631456376422
1.62,-0.06877120871761913,0.010047327533936265,87.46690437483124
1.63,-0.0386315153593195,-0.04725099770481654,87.21941049095035
1.64,-0.09776053210041113,-0.058245941401514234,87.01735284925061
1.65,-0.043274826896822986,-0.026416423167390568,86.8489714811675
1.66,-0.09719580502152558,-0.015421479470692872,86.72549181123989
1.67,-0.01137820484865718,-0.0009476161627614306,86.65813926400664
1.68,-0.05833421566710455,0.03782676025050423,86.56833586769565
1.69,0.007174125483620244,0.04129269881841248,86.4560816223069
1.7,0.017025475637512767,0.1037964224306904,86.33206740835362
1.71,0.08602675835023342,0.11363605327141868,86.21981316296488
1.72,-0.0061492504145316375,0.1118965934658018,86.10755891757614
1.73,0.010081424148994045,0.03724261330085677,86.02898094580402
1.74,-0.0896451948186483,0.0025183224051468158,85.92795212495415
1.75,-0.0003555689015205369,0.0025183224051468158,85.84937415318203
1.76,-0.07458580604836673,0.0002076966932079848,85.79324703048766
1.77,-0.03921715825594157,-0.03336128134653256,85.73711990779329
1.78,-0.09140212350851448,0.000791843642855442,85.69221820963779
1.79,-0.029344892284312543,-0.05650648159589736,85.63609108694342
1.8,-0.05659820279497487,0.014097413051491968,85.5575131151713
1.81,-0.01485023059291654,-0.025261110311421153,85.50138599247693
1.82,-0.055447832819467247,0.04592693128561564,85.4677097188603
1.83,0.20894901918765665,0.12926522943531954,85.4228080207048
1.84,0.6200494167986068,0.1813451752572217,85.34423004893269
1.85,0.9314022796241781,-0.11322065988500271,85.23144125951829
1.86,0.15097037242207265,-0.42283152424148057,85.13041243866842
1.87,-0.07109286448637087,-0.24400467138940563,85.0518344668963
1.88,-0.04789722261658997,-0.04435622504323025,84.96203107058531
1.89,0.042542773276045415,0.010047327533936265,84.87222767427431
1.9,-0.04616120974446029,0.0036736352611162312,84.82732597611881
1.91,0.019932774302886567,0.01583687285710884,84.7936497025022
1.92,-0.0212295550025497,0.02278173103625083,84.7487480043467
1.93,0.054151052119804116,0.06733267172936357,84.69262088165232
1.94,-0.01775752925829034,0.04823755699755447,84.62526833441908
1.95,0.03327706601877495,0.017563351619400213,84.54669036264696
1.96,0.008910138355749924,0.08296184789326443,84.46811239087484
1.97,0.08546203127134787,0.05750602193196079,84.38953441910272
1.98,-0.0125285748241648,0.06038781355022158,84.31042190330494
1.99,0.054151052119804116,0.04708224414158505,84.22061850699394
2.0,0.008910138355749924,0.06733267172936357,84.09713883706632
2.01,0.07849706396509264,0.08411716074923384,83.98488459167758
2.02,-0.0009412117981425977,0.07544582380780047,83.88385577082772
2.03,0.0732681095309671,0.07544582380780047,83.77160152543897
2.04,0.03384179309766051,0.11132542755947986,83.6705727045891
2.05,0.08661240124685549,0.08354599484291188,83.58076930827811
2.06,0.02689774160914179,0.07312221705253615,83.52464218558374
2.07,0.11965939327052891,0.10843065489789357,83.56954388373924
2.08,0.060530376529437276,0.13967602618236977,83.86140492174997
2.09,0.14111902226818013,0.1286810824856721,84.7487480043467
2.1,0.042542773276045415,0.10726236099859865,86.88264775478413
2.11,0.1735803713952315,0.1529815955910063,90.55549975509865
2.12,0.09008442699111484,0.13447062780884467,94.81207383143463
2.13,0.20489135054677524,0.15935528786382633,98.70943432252665
2.14,0.2083842921087711,0.22590909699365996,101.70822630648306
2.15,0.27912158769362144,0.18886119934268567,103.79722435876499
2.16,0.19271834462413098,0.15472105539662317,105.05500645114456
2.17,0.33419293579383164,0.2102799208297591,105.70661561842493
2.18,0.26286999731235927,0.17440031707807974,105.85254613743031
2.19,0.33710023445920545,0.177866255645988,105.5494596748807
2.2,0.24605367985221152,0.17266085727246286,104.83049796036708
2.21,0.2478106085420777,0.09395679158996212,103.6625192642985
2.22,0.17475165718847563,0.14546557150554235,102.06743989172703
2.23,0.17475165718847563,0.09626741730190096,100.27030287745583
2.24,0.028633754481271468,0.03956622005612111,98.40634785997705
2.25,0.07443939532421122,0.023352896942572792,96.66533796840021
2.26,-0.01717188636166828,0.05518241517669646,95.16006199213975
2.27,0.05239412342993793,0.04649809719193759,94.0145341451489
2.28,-0.0328378338463084,0.03377667473294853,93.18331818524655
2.29,0.02804811158464941,0.0002076966932079848,92.64449780738059
2.3,-0.05486218992284519,0.01583687285710884,92.31842595172758
2.31,0.03559872178752669,0.019302811425017087,92.1275937345667
2.32,-0.056012559898352805,0.03088190207136224,92.04901576279458
2.33,0.02921939737789353,0.029142442265745368,92.0041140646391
2.34,-0.056012559898352805,0.014097413051491968,92.01533948917796
2.35,0.018782404327378946,0.007152554872349976,91.92553609286698
2.36,-0.06994249451086325,-0.002102929018730846,91.7347038757061
2.37,-0.0026772246702722775,0.0002076966932079848,91.36426486592326
2.38,-0.07400016315174468,-0.028727048879329396,90.82490994403163
2.39,0.007759768380242305,0.012942100195522553,90.27432959760114
2.4,-0.11225519379180714,-0.020042730894570534,89.84776346512392
2.41,0.008345411276864365,0.019886958374664546,89.5895787007298
2.42,-0.10878316804754778,-0.02583227621774311,89.52222615349656
2.43,-0.01196384774527924,0.005997242016380561,89.62325497434642
2.44,-0.05776948858821899,0.03319252778330107,89.87021431420166
2.45,-0.010206919055413058,-0.005581848629964591,90.19575162582902
2.46,-0.0925524934840221,-0.013097872715428541,90.60040145325415
2.47,-0.018343172154912404,-0.03625605400811885,91.10554555750349
2.48,-0.101253473662407,-0.01599264537701483,91.7347038757061
2.49,-0.01428550351403098,-0.002102929018730846,92.40876389206423
2.5,-0.09313813638064415,-0.00615301453628655,93.05983851531893
2.51,-0.044425196872330604,-0.03972199257602709,93.54306631451618
2.52,-0.0954597921493959,-0.011371393953137167,93.8012510789103
2.53,-0.008470906183283378,-0.007892474341903422,93.86860362614354
2.54,-0.07458580604836673,0.005997242016380561,93.76757480529368
2.55,-0.0015268546947646584,0.0002076966932079848,93.48693919182182
2.56,-0.08790918194651862,-0.013097872715428541,93.04861309078005
2.57,-0.009056549079905439,-0.012526706809106582,92.54346898653071
2.58,-0.09081648061189242,-0.007892474341903422,92.02656491371684
2.59,-0.010206919055413058,-0.0073213084355814645,91.48774453585088
2.6,-0.07688654599938197,0.0002076966932079848,90.93716418942037
2.61,0.02631209871251973,0.0314530679776842,90.38711838701553
2.62,-0.10763279807204017,-0.05014577036640283,89.87021431420166
2.63,-0.02240084079579382,-0.02119804375053995,89.40997190810782
2.64,-0.11633377825042507,-0.00615301453628655,88.94919495798831
2.65,-0.026458509436675243,-0.011942559859459126,88.52262882551109
2.66,-0.09776053210041113,-0.02352165050580428,88.17410612078032
2.67,-0.01658624346504622,-0.026987589073712525,87.92714678092509
2.68,-0.1099544538407919,0.005413095066733104,87.7026382901476
2.69,0.011817437021123726,0.017563351619400213,87.47812979937012
2.7,-0.05080452128196377,0.04823755699755447,87.2418613400281
2.71,-0.018343172154912404,0.030297755121714783,87.01735284925061
2.72,-0.005584523335646079,0.07601698971412243,86.80406978301201
2.73,0.08370510258148169,0.09106201892837583,86.6356884149289
2.74,0.001966086867231204,0.10205696262507354,86.48975789592353
2.75,0.03789946173854193,0.03898207310647365,86.35505280145703
2.76,-0.07167850738299293,-0.0049977016803171345,86.2534894365815
2.77,-0.027608879412182864,-0.005581848629964591,86.1636860402705
2.78,-0.12501384261107346,-0.03451659420250197,86.07388264395952
2.79,-0.031666548053064285,-0.03220596849056314,85.9953046721874
2.8,-0.09951746079027732,-0.02062687784421799,85.91672670041528
2.81,-0.018343172154912404,-0.03393244725285452,85.82692330410428
2.82,-0.10589678519991048,-0.026987589073712525,85.72589448325442
2.83,-0.0003555689015205369,0.003102469354794273,85.62486566240455
2.84,-0.05371181994733757,0.027987129409775952,85.53506226609355
2.85,0.2883872949508919,0.16166591357576518,85.4677097188603
2.86,0.6478883702058912,0.11768613878897438,85.43403344524368
2.87,0.8688012371388271,-0.17803500920921947,85.38913174708819
2.88,0.03501307889090463,-0.4471320373468148,85.28756838221265
2.89,-0.05833421566710455,-0.1583557475277629,85.16408871228504
2.9,-0.038045872462697444,-0.0009476161627614306,85.0518344668963
2.91,0.03907074753178605,-0.02757173602335998,84.98448191966305
2.92,-0.06065587143585629,-0.002102929018730846,84.96203107058531
2.93,0.039656390428408114,0.02855829531609791,84.96203107058531
2.94,-0.0693568516142412,0.012357953245875096,84.90590394789093
2.95,0.019347131406264505,0.00889201467796685,84.80487512704107
2.96,-0.07688654599938197,0.01120264038990568,84.69262088165232
2.97,0.03733473465965637,0.03608730044488736,84.59159206080245
2.98,-0.043839553975708545,0.026247669604159078,84.51301408903034
2.99,0.045450071941419215,0.022197584086603377,84.46811239087484
3.0,-0.06182715722910041,0.01583687285710884,84.4456615417971
3.01,0.03327706601877495,0.03319252778330107,84.41198526818047
3.02,-0.04616120974446029,0.01814749856904767,84.3558581454861
3.03,0.04195713037942335,0.02104227123063396,84.25429478061056
3.04,-0.043274826896822986,0.04303215862402935,84.09713883706632
3.05,0.05239412342993793,0.03898207310647365,83.91753204444434
3.06,-0.018343172154912404,0.07427752990850556,83.77160152543897
3.07,0.10284307581038117,0.09395679158996212,83.68179812912798
3.08,0.006588482586998183,0.07427752990850556,83.7154744027446
3.09,0.11445135465413987,0.09626741730190096,83.9736591671387
3.1,0.010646151227879604,0.07196690419656673,84.71507173073007
3.11,0.13356841206530284,0.11305190632177123,86.55711044315677
3.12,0.03848510463516399,0.09859102405716529,89.82531261604616
3.13,0.17995969580486465,0.13621008761446152,94.1043375414599
3.14,0.0906700698877369,0.12578630982408578,98.0915014288629
3.15,0.21012030498090079,0.1379365663767529,101.32602732813567
3.16,0.1445910480124395,0.1830846350628386,103.58394129252638
3.17,0.2524330042618447,0.15472105539662317,105.05500645114456
3.18,0.19330398752075303,0.14603673741186432,105.87499698650805
3.19,0.32666324140869085,0.21201938063537598,106.21175972267427
3.2,0.23446631682618932,0.1691949187045546,106.13318175090215
3.21,0.32666324140869085,0.16687131194929028,105.63926307119169
3.22,0.21185631785303047,0.12578630982408578,104.74069456405608
3.23,0.23563760261943342,0.09395679158996212,103.49413789621539
3.24,0.1051647315791329,0.07022744439094986,101.92150937272167
3.25,0.16082172257596516,0.07717230257009185,100.27030287745583
3.26,-0.02296556787467938,0.005997242016380561,98.65330719983228
3.27,0.07211773955545948,0.020458124280986503,97.27151089349942
3.28,-0.07979384466475578,-0.016576792326662287,96.12598304650858
3.29,0.02689774160914179,0.0042577822107636885,95.26109081298961
3.3,-0.0780578317926261,-0.02062687784421799,94.58756534065715
3.31,0.02978412445677909,0.025092356748189663,94.09311211692102
3.32,-0.10008218786916288,-0.026416423167390568,93.8461527770658
3.33,0.03848510463516399,0.016408038763430798,93.72267310713818
3.34,-0.09140212350851448,-0.002102929018730846,93.79002565437142
3.35,0.03210578022553083,0.023352896942572792,93.89105447522128
3.36,-0.10589678519991048,-0.03913784562637963,94.0145341451489
3.37,-0.003848510463516399,-0.02583227621774311,93.93595617337678
3.38,-0.09661016212490352,-0.009047787197872838,93.7114476825993
3.39,0.0031164568427388233,-0.014837332521045413,93.27312158155755
3.4,-0.10472549940666635,-0.02062687784421799,92.63327238284171
3.41,0.001966086867231204,-0.013682019665075998,91.97043779102246
3.42,-0.1261851284043176,-0.03798253277041022,91.386715715001
3.43,-0.01949354213042002,-0.03220596849056314,90.97084046303699
3.44,-0.14009414719909152,-0.05940125425748365,90.74633197225951
3.45,0.005438112611490564,0.000791843642855442,90.70143027410401
3.46,-0.130242797045199,-0.03046650868494627,90.78000824587613
3.47,-0.031080905156442223,-0.03741136686408826,90.91471334034263
3.48,-0.12039144689130649,-0.04203261828796592,91.16167268019787
3.49,-0.01369986061740892,-0.0009476161627614306,91.54387165854524
3.5,-0.11922016109806237,-0.02757173602335998,92.07146661187234
3.51,-0.01658624346504622,-0.026416423167390568,92.62204695830283
3.52,-0.11401212248167332,-0.03508776010882393,93.1608673361688
3.53,-0.01137820484865718,-0.017147958232984244,93.5767425881328
3.54,-0.11922016109806237,-0.04203261828796592,93.8461527770658
3.55,-0.01428550351403098,-0.017732105182631703,93.89105447522128
3.56,-0.12559948550769554,-0.05419585588395853,93.74512395621592
3.57,-0.01658624346504622,-0.029311195828976854,93.4532629182052
3.58,-0.11457684956055889,-0.04956162341675537,93.09351478893555
3.59,0.004287742635982945,-0.00037645025643947243,92.70062493007495
3.6,-0.1273354983798252,-0.06865673814856448,92.3072005271887
3.61,-0.021815197899171763,-0.04146145238164396,91.90308524378922
3.62,-0.11922016109806237,-0.03336128134653256,91.40916656407876
3.63,-0.004998880439024018,-0.025261110311421153,90.86981164218713
3.64,-0.11689850532931062,-0.06229602691906994,90.3304567202955
3.65,-0.007320536207775759,-0.011371393953137167,89.81408719150728
3.66,-0.12907151125195487,-0.06865673814856448,89.34208481684891
3.67,-0.0020915817736502167,-0.03451659420250197,88.93796953344943
3.68,-0.11922016109806237,-0.03393244725285452,88.58998137274433
3.69,0.001380443970609143,-0.00615301453628655,88.28636036616906
3.7,-0.09428850635615178,-0.014837332521045413,88.0057247526972
3.71,-0.01196384774527924,-0.03336128134653256,87.73631456376422
3.72,-0.1070471551754181,-0.02757173602335998,87.50058064844787
3.73,-0.023551210771301442,-0.029311195828976854,87.2867630381836
3.74,-0.13720776435145424,-0.04261676523761338,87.09593082102273
3.75,0.012403079917745786,-0.0026870759683783035,86.90509860386187
3.76,-0.09719580502152558,-0.015421479470692872,86.83774605662863
3.77,0.0732681095309671,0.07486167685815302,86.77039350939538
3.78,0.007759768380242305,0.07601698971412243,86.55711044315677
3.79,0.11850902329502129,0.12115207735688263,86.28716571019812
3.8,-0.05080452128196377,0.05287178946475763,86.01775552126514
3.81,0.02689774160914179,0.029142442265745368,85.8156978795654
3.82,-0.0925524934840221,-0.020042730894570534,85.68099278509892
3.83,-0.00790617910439782,-0.03046650868494627,85.54628769063243
3.84,-0.12559948550769554,-0.07039619795418135,85.45648429432143
3.85,-0.003848510463516399,-0.018316252132279158,85.37790632254931
3.86,-0.12327782973894379,-0.07618574327735392,85.27634295767379
3.87,-0.020643912105927642,-0.058245941401514234,85.16408871228504
3.88,-0.1244491155321879,-0.07849636898929276,85.06305989143517
3.89,0.005438112611490564,0.04129269881841248,84.95080564604643
3.9,0.0031164568427388233,0.013513266101844511,84.89467852335206
3.91,0.4716098583226509,0.13042054229128897,84.83855140065769
3.92,0.8461703223479318,0.016408038763430798,84.82732597611881
3.93,0.5093001618838278,-0.30013470272886356,84.82732597611881
3.94,-0.12095617397019204,-0.4095129737895185,84.80487512704107
3.95,-0.006734893311153699,-0.10453634190024384,84.75997342888557
3.96,-0.040367528231449186,-0.05476702179028049,84.69262088165232
3.97,0.05239412342993793,0.0065684079227025195,84.6140429098802
3.98,-0.06994249451086325,-0.021782190700187404,84.55791578718583
3.99,0.03907074753178605,-0.017732105182631703,84.51301408903034
4.0,-0.10008218786916288,-0.050716936272724784,84.45688696633596
4.01,0.05009338347892269,0.03203721492733166,84.38953441910272
4.02,-0.07688654599938197,-0.009047787197872838,84.3216473278438
4.03,0.05065811055780825,0.04244801167438189,84.27674562968832
4.04,-0.0635631701012301,-0.006737161485934007,84.24306935607169
4.05,0.07153209665883742,0.03839792615682619,84.18694223337732
4.06,-0.0635631701012301,-0.018316252132279158,84.09713883706632
4.07,0.057623077864063475,0.02278173103625083,84.00733544075533
4.08,-0.01369986061740892,0.024508209798542208,83.89508119536659
4.09,0.07964743394060025,0.07138275724691928,83.79405237451672
4.1,-0.056012559898352805,-0.019471564988248573,83.68179812912798
4.11,0.06226638940156696,0.020458124280986503,83.55831845920036
4.12,0.007174125483620244,0.04997701680317134,83.44606421381162
4.13,0.1138657117575178,0.07486167685815302,83.38993709111725
4.14,-0.0020915817736502167,0.04939286985352388,83.45728963835049
4.15,0.12545307478354,0.07486167685815302,83.91753204444434
4.16,0.021668787175016246,0.07370636400218361,85.19776498590167
4.17,0.12430270480803239,0.06907213153498044,88.02817560177496
4.18,0.0732681095309671,0.09395679158996212,92.11636831002784
4.19,0.17125871562647976,0.13909187923272232,96.46328032670047
4.2,0.07443939532421122,0.07081159134059732,99.9784418394451
4.21,0.2419960112113301,0.16861077175490716,102.69659820992965
4.22,0.14632706088456918,0.14257079884395607,104.39270640335099
4.23,0.2965026322326548,0.22185901147610426,105.42598000495308
4.24,0.21127067495640842,0.17555562993404916,105.91989868466355
4.25,0.3173766183336839,0.18770588648671627,105.99847665643567
4.26,0.2391096283636928,0.14257079884395607,105.69539019388607
4.27,0.33419293579383164,0.1651448331869989,104.94275220575582
4.28,0.19736165616163445,0.09685156425154841,103.89825317961485
4.29,0.24722496564545562,0.10321227548104295,102.59556938907978
4.3,0.04486442904479715,0.009463180584288808,101.05661713920269
4.31,0.13821172360280634,0.04534278433596818,99.49574858427351
4.32,-0.025287223643431122,-0.02062687784421799,97.97924718347416
4.33,0.07096736957995185,0.03782676025050423,96.71023966655571
4.34,-0.049654151306456146,-0.024676963361773694,95.75554403672574
4.35,0.03442743599428257,0.016408038763430798,95.07025859582875
4.36,-0.07400016315174468,-0.025261110311421153,94.65491788789039
4.37,0.03442743599428257,-0.0009476161627614306,94.39673312349629
4.38,-0.09196685058740003,-0.05245639607834166,94.29516975862076
4.39,0.03210578022553083,0.003102469354794273,94.2390426359264
4.4,-0.086758811971011,-0.03508776010882393,94.28394433408188
4.41,0.027462468688027347,-0.004426535773995176,94.30639518315964
4.42,-0.0954597921493959,-0.055922334646249905,94.35183142534079
4.43,0.009495781252371984,0.020458124280986503,94.21659178684864
4.44,-0.1070471551754181,-0.03913784562637963,93.90227989976016
4.45,0.00023007399510152385,-0.006737161485934007,93.35223409735532
4.46,-0.08502279909888132,-0.022366337649834863,92.64449780738059
4.47,0.017025475637512767,0.026247669604159078,91.98166321556134
4.48,-0.08443715620225925,-0.013097872715428541,91.46529368677312
4.49,-0.0026772246702722775,-0.02583227621774311,91.10554555750349
4.5,-0.09428850635615178,-0.03625605400811885,90.94838961395925
4.51,-0.004413237542401958,-0.014837332521045413,90.95961503849813
4.52,-0.11225519379180714,-0.02757173602335998,91.17289810473673
4.53,-0.01890789923379796,-0.015421479470692872,91.48774453585088
4.54,-0.12792114127644727,-0.04146145238164396,91.88063439471148
4.55,-0.032252190949686343,-0.03856667972005768,92.32965137626644
4.56,-0.115748135353803,-0.04087730543199651,92.82410460000257
4.57,0.012967806996631345,0.0065684079227025195,93.26189615701867
4.58,-0.10357512943115874,-0.04203261828796592,93.63286971082718
4.59,-0.005584523335646079,-0.008476621291550879,93.90227989976016
4.6,-0.12095617397019204,-0.060556567113453065,94.08188669238216
4.61,-0.01485023059291654,-0.006737161485934007,94.12678839053764
4.62,-0.10298948653453668,-0.0368272199144408,94.0145341451489
4.63,0.015289462765383085,0.0013630095491774003,93.74512395621592
4.64,-0.10878316804754778,-0.0327771343968851,93.31802327971305
4.65,0.007759768380242305,0.014681560001139425,92.84655544908033
4.66,-0.08037948756137783,-0.011371393953137167,92.36386219390873
4.67,0.017611118534134825,0.014681560001139425,91.88063439471148
4.68,-0.10240384363791462,-0.03567190705847139,91.39794113953988
4.69,0.011817437021123726,0.011786787339553137,90.92593876488151
4.7,-0.11051918091967745,-0.05419585588395853,90.45447093424879
4.71,-0.02296556787467938,-0.02062687784421799,89.99369398412928
4.72,-0.07979384466475578,-0.02062687784421799,89.53345157803544
4.73,-0.01485023059291654,-0.009631934147520295,89.11757632607143
4.74,-0.09370286345952972,-0.02988236173529881,88.74713731628857
4.75,-0.0061492504145316375,0.0013630095491774003,88.41037458012235
4.76,-0.11689850532931062,-0.061711879969422484,88.10675357354708
4.77,0.011817437021123726,0.008307867728319393,87.82611796007522
4.78,-0.10472549940666635,-0.03856667972005768,87.56793319568112
4.79,-0.0009412117981425977,0.0019471564988248575,87.3546501294425
4.8,-0.1099544538407919,-0.04261676523761338,87.19695964187261
4.81,0.02921939737789353,0.011786787339553137,87.12960709463935
4.82,-0.06877120871761913,0.012942100195522553,87.10715624556161
4.83,0.048336454789056515,0.08816724626678954,87.07347997194499
4.84,-0.01428550351403098,0.023937043892220247,87.07347997194499
4.85,0.11792338039839922,0.14836034416712865,87.05102912286723
4.86,-0.00790617910439782,0.07601698971412243,87.00612742471174
4.87,0.048336454789056515,0.06502204601742474,86.92754945293962
4.88,-0.0809651304579999,-0.02814290192968194,86.81529520755088
4.89,0.015289462765383085,-0.014837332521045413,86.69181553762326
4.9,-0.09023083771527035,-0.060556567113453065,86.65813926400664
4.91,-0.01949354213042002,-0.024092816412126235,86.57956129223452
4.92,-0.11342647958505127,-0.061140714063100524,86.37750365053478
4.93,-0.06009114435697073,-0.07039619795418135,86.14123519119276
4.94,-0.10472549940666635,-0.06924088509821193,85.88305042679866
4.95,0.007174125483620244,0.013513266101844511,85.6473165114823
4.96,-0.029344892284312543,0.030297755121714783,85.4677097188603
4.97,0.27621428902824763,0.15877114091417888,85.34423004893269
4.98,0.6623830318972872,0.10843065489789357,85.28756838221265
4.99,0.9076419106755116,-0.14851611668703463,85.22021583497941
5.0,0.07676105109296295,-0.46912192474021014,85.1416378632073
5.01,-0.03978188533482713,-0.14678963792474325,85.06305989143517
5.02,-0.0154358734895386,-0.046082703805521624,85.0069327687408
5.03,0.067474428017956,0.03493198758891794,84.98448191966305
5.04,-0.0386315153593195,0.000791843642855442,84.91712937242981
5.05,0.023404800047145926,0.014681560001139425,84.84977682519656
5.06,-0.06414881299785215,-0.004426535773995176,84.7487480043467
5.07,0.045450071941419215,0.03493198758891794,84.63649375895795
5.08,-0.08502279909888132,-0.058245941401514234,84.54669036264696
5.09,0.07791142106847058,0.07949590932535618,84.50178866449146
5.1,-0.037460229566075386,0.014681560001139425,84.50178866449146
5.11,0.051243753454430316,0.04303215862402935,84.46811239087484
5.12,-0.023551210771301442,0.01873164551869513,84.36708357002497
5.13,0.06688878512133394,0.05576656212634392,84.23184393153282
5.14,-0.01079256195203512,0.014681560001139425,84.0634625634497
5.15,0.05297976632655999,0.05750602193196079,83.90630661990546
5.16,-0.004413237542401958,0.03839792615682619,83.77160152543897
5.17,0.13764699652392076,0.13967602618236977,83.6705727045891
5.18,-0.003848510463516399,0.03088190207136224,83.61444558189473
5.19,0.1080720302445067,0.10610704814262924,83.59199473281699
5.2,0.014139092789875466,0.07312221705253615,83.6256710064336
5.21,0.13415405496192492,0.12520216287443833,83.8052777990556
5.22,0.02978412445677909,0.05287178946475763,84.3558581454861
5.23,0.13415405496192492,0.12347568411214696,85.8605995777209
5.24,0.05356540922318206,0.07891176237570872,88.88184241075507
5.25,0.17125871562647976,0.1518262827350369,93.13841648709105
5.26,0.07211773955545948,0.09454093853960958,97.22660919534393
5.27,0.20374098057126763,0.17555562993404916,100.59637473310885
5.28,0.15734969683170583,0.13736540047043094,102.99968467247926
5.29,0.2680989517464848,0.19985614303938337,104.59476404505072
5.3,0.21649962939053394,0.17266085727246286,105.5045579767252
5.31,0.32666324140869085,0.24268060497020474,105.95357495828017
5.32,0.274478276156118,0.1871347205803943,105.91989868466355
5.33,0.35797422056023465,0.2293750355615682,105.44843085403083
5.34,0.21359233072516015,0.14198665189430862,104.67334201682284
5.35,0.24605367985221152,0.12404685001846892,103.56149044344863
5.36,0.1138657117575178,0.08701193341082013,102.15724328803803
5.37,0.15502804106295406,0.10321227548104295,100.56269845949222
5.38,0.0007948010739870824,-0.004426535773995176,98.93394281330413
5.39,0.06688878512133394,0.05807718783828275,97.40675053199158
5.4,-0.035159489615060144,-0.015421479470692872,96.06985592381422
5.41,-0.01949354213042002,-0.026416423167390568,95.07025859582875
5.42,-0.029930535180934605,0.012942100195522553,94.34007145677626
5.43,0.023404800047145926,0.030297755121714783,93.8461527770658
5.44,-0.06239188430798597,-0.018316252132279158,93.58796801267168
5.45,0.011231794124501664,0.04534278433596818,93.47571376728294
5.46,-0.07458580604836673,-0.019471564988248573,93.53184088997732
5.47,0.03616344886641225,0.06443789906777728,93.55429173905506
5.48,-0.0751505331272523,-0.03162182154091569,93.58796801267168
5.49,-0.006734893311153699,-0.006737161485934007,93.48693919182182
5.5,-0.037460229566075386,0.008307867728319393,93.27312158155755
5.51,-0.020643912105927642,-0.006737161485934007,92.85778087361919
5.52,-0.0751505331272523,-0.03567190705847139,92.29597510264982
5.53,-0.007320536207775759,-0.0009476161627614306,91.70102760208948
5.54,-0.05833421566710455,0.0019471564988248575,91.18412352927561
5.55,-0.01775752925829034,-0.009047787197872838,90.82490994403163
5.56,-0.08152985753688545,-0.03046650868494627,90.64530315140965
5.57,-0.004998880439024018,0.013513266101844511,90.64530315140965
5.58,-0.08790918194651862,-0.04377207809358279,90.84736079310939
5.59,0.018782404327378946,0.01583687285710884,91.18412352927561
5.6,-0.10763279807204017,-0.07329097061576763,91.65612590393398
5.61,-0.0026772246702722775,0.01583687285710884,92.23984797995546
5.62,-0.049654151306456146,-0.01078724700348971,92.91390799631357
5.63,-0.004413237542401958,0.015252725907461384,93.59919343721056
5.64,-0.06239188430798597,-0.03393244725285452,94.17169008869314
5.65,-0.0020915817736502167,0.0013630095491774003,94.53143821796279
5.66,-0.08270114333012958,-0.04666685075516908,94.73349585966251
5.67,-0.01485023059291654,-0.00037645025643947243,94.78962298235689
5.68,-0.0751505331272523,-0.03508776010882393,94.69981958604589
5.69,-0.043839553975708545,-0.03741136686408826,94.44163482165179
5.7,-0.05718384569159693,-0.02293750355615682,94.0594358433044
5.71,-0.01196384774527924,0.000791843642855442,93.5767425881328
5.72,-0.07341452025512261,-0.03856667972005768,93.04861309078005
5.73,0.004852469714868503,0.010618493440258222,92.44244016568085
5.74,-0.06820648163873358,-0.0368272199144408,91.7796055738616
5.75,-0.026458509436675243,-0.031037674591268227,91.17289810473673
5.76,-0.06414881299785215,-0.04956162341675537,90.62285230233189
5.77,-0.006734893311153699,-0.02814290192968194,90.1171736540569
5.78,-0.07282887735850055,-0.04030613952567455,89.6344803988853
5.79,-0.0061492504145316375,0.021626418180281416,89.18492887330467
5.8,-0.07632181892049641,-0.055922334646249905,88.81448986352181
5.81,-0.003848510463516399,0.0019471564988248575,88.47772712735559
5.82,-0.0635631701012301,-0.03567190705847139,88.19655696985808
5.83,0.015289462765383085,0.029726589215392823,87.92714678092509
5.84,-0.05195489125747139,0.0025183224051468158,87.68018744106986
5.85,0.03848510463516399,0.05518241517669646,87.489355223909
5.86,0.03442743599428257,0.03956622005612111,87.3546501294425
5.87,0.09472773852861832,0.12173622430653008,87.2418613400281
5.88,-0.01079256195203512,0.04361630557367681,87.16328336825597
5.89,0.02804811158464941,0.04592693128561564,87.05102912286723
5.9,-0.04789722261658997,-0.011371393953137167,86.92754945293962
5.91,-0.00790617910439782,-0.017147958232984244,86.79284435847313
5.92,-0.0664495529488674,-0.05245639607834166,86.71426638670101
5.93,-0.01658624346504622,-0.017147958232984244,86.6356884149289
5.94,-0.0751505331272523,-0.07791222203964529,86.57956129223452
5.95,0.0025308139461167624,-0.007892474341903422,86.5009833204624
5.96,-0.06762083874211151,-0.07039619795418135,86.39995449961253
5.97,0.001966086867231204,0.0019471564988248575,86.30961655927588
5.98,0.028633754481271468,0.02104227123063396,86.23103858750376
5.99,0.3081109110764135,0.17150554441649343,86.15246061573164
6.0,0.7383283660985266,0.11305190632177123,86.08510806849839
6.01,0.7736970138909517,-0.17861915615886692,86.01775552126514
6.02,0.1022783487314956,-0.42514214995341937,85.97285382310965
6.03,-0.05833421566710455,-0.13289992156645927,85.91672670041528
6.04,0.021083144278394188,-0.02814290192968194,85.8605995777209
6.05,0.011231794124501664,-0.0368272199144408,85.8156978795654
6.06,0.012403079917745786,0.008307867728319393,85.72589448325442
6.07,0.04660044191692683,0.05576656212634392,85.61364023786567
6.08,-0.008470906183283378,-0.03046650868494627,85.5126114170158
6.09,0.02978412445677909,0.01814749856904767,85.4228080207048
6.1,0.007174125483620244,0.000791843642855442,85.38913174708819
6.11,0.04139240330053779,0.026247669604159078,85.35545547347157
6.12,-0.003848510463516399,0.005997242016380561,85.29879380675153
6.13,0.04080676040391573,0.05344295537107959,85.24266668405716
6.14,0.04080676040391573,0.04187684576805994,85.1416378632073
6.15,0.036749091763034314,0.05113232965914076,84.97325649512418
6.16,-0.0003555689015205369,0.012942100195522553,84.81610055157994
6.17,0.05297976632655999,0.06443789906777728,84.7038463061912
6.18,0.03327706601877495,0.05576656212634392,84.62526833441908
6.19,0.054151052119804116,0.05576656212634392,84.54669036264696
6.2,0.05065811055780825,0.04534278433596818,84.45688696633596
6.21,0.08140436263046644,0.09859102405716529,84.3558581454861
6.22,0.051829396351052374,0.06328258621180786,84.3216473278438
6.23,0.11154405598876607,0.10553588223630728,84.43443611725822
6.24,0.05588706499193379,0.05807718783828275,84.95080564604643
6.25,0.12545307478354,0.13909187923272232,86.48975789592353
6.26,0.10575037447575497,0.09221733178434526,89.61202954980756
6.27,0.18286699447023846,0.1732450042221103,93.81247650344916
6.28,0.15852098262494993,0.14662088436151177,97.72106241908006
6.29,0.20779864921214905,0.1732450042221103,100.9219120447362
6.3,0.20489135054677524,0.15241042968468435,103.17929146510124
6.31,0.2767999319248697,0.21143523368572853,104.72946913951722
6.32,0.2617196273368516,0.16456068623735146,105.62803764665281
6.33,0.31390459258942455,0.22763557575595134,106.05460377913003
6.34,0.2860656391821402,0.13909187923272232,106.04337835459117
6.35,0.32839925428082056,0.20159560284500025,105.60558679757507
6.36,0.2576619586959702,0.1518262827350369,104.80804711128934
6.37,0.22520060956891885,0.1269416226800552,103.69619553791512
6.38,0.12256669193590271,0.03262136187697911,102.34807550519889
6.39,0.16140736547258724,0.08239068198694247,100.82088322388633
6.4,0.04950774058230063,0.017563351619400213,99.24825470039261
6.41,0.028633754481271468,0.016408038763430798,97.7884149663133
6.42,0.001380443970609143,0.005997242016380561,96.53063287393373
6.43,0.008910138355749924,0.007736701821997434,95.62083894225924
6.44,-0.034573846718438085,-0.0368272199144408,94.96922977497887
6.45,0.011231794124501664,0.01583687285710884,94.54266364250165
6.46,-0.024722496564545563,-0.02352165050580428,94.30639518315964
6.47,-0.006734893311153699,0.008307867728319393,94.1941409377709
6.48,-0.01485023059291654,-0.009631934147520295,94.22781721138752
6.49,0.039656390428408114,0.04361630557367681,94.31762060769852
6.5,-0.04268918400020093,-0.03741136686408826,94.43040939711291
6.51,-0.024722496564545563,0.01120264038990568,94.39673312349629
6.52,-0.05371181994733757,-0.04320091218726084,94.16046466415428
6.53,-0.0125285748241648,0.027987129409775952,93.6665459844438
6.54,-0.04848286551321203,-0.0032582418747002617,93.03738766624119
6.55,-0.04906850840983409,-0.011942559859459126,92.40876389206423
6.56,-0.10357512943115874,-0.08428591431246533,91.88063439471148
6.57,-0.04906850840983409,-0.008476621291550879,91.55509708308412
6.58,-0.0664495529488674,-0.04956162341675537,91.42039198861762
6.59,-0.043839553975708545,0.013513266101844511,91.45406826223426
6.6,-0.0838515133056372,-0.0669172783429476,91.70102760208948
6.61,-0.05195489125747139,-0.009047787197872838,92.09391746095008
6.62,-0.06588482586998183,-0.03972199257602709,92.61082153376397
6.63,-0.040953171128071245,0.020458124280986503,93.13841648709105
6.64,-0.06239188430798597,-0.06808557224224251,93.65532055990492
6.65,-0.06529918297335977,-0.048977476467107914,94.11556296599878
6.66,-0.08790918194651862,-0.06750142529259506,94.50898736888503
6.67,-0.05718384569159693,-0.015421479470692872,94.77839755781801
6.68,-0.06009114435697073,-0.05650648159589736,94.87942637866789
6.69,-0.06762083874211151,-0.017147958232984244,94.82329925597351
6.7,-0.07400016315174468,-0.04492739094955221,94.63246703881265
6.71,-0.05139016417858583,0.0036736352611162312,94.31762060769852
6.72,-0.09370286345952972,-0.07213565775979822,93.89105447522128
6.73,-0.037460229566075386,0.007152554872349976,93.39713579551082
6.74,-0.07688654599938197,-0.07734105613332334,92.79042832638595
6.75,-0.08502279909888132,-0.03220596849056314,92.18372085726108
6.76,-0.05833421566710455,-0.022366337649834863,91.64490047939512
6.77,-0.06239188430798597,-0.012526706809106582,91.16167268019787
6.78,-0.08908046773976273,-0.0518722491286942,90.71265569864289
6.79,-0.07573617602387435,-0.01078724700348971,90.26310417306226
6.8,-0.04501083976895267,-0.017732105182631703,89.82531261604616
6.81,-0.04268918400020093,0.04072153291209052,89.43242275718556
6.82,-0.06124151433247835,-0.03393244725285452,89.08390005245481
6.83,-0.06182715722910041,0.0013630095491774003,88.75836274082745
6.84,-0.05718384569159693,-0.02814290192968194,88.45527627827784
6.85,-0.05195489125747139,-0.0026870759683783035,88.19655696985808
6.86,-0.08502279909888132,-0.04492739094955221,87.97204847908058
6.87,-0.10646151227879604,-0.0478221636111385,87.76999083738085
6.88,-0.09081648061189242,-0.06460665263100877,87.59038404475886
6.89,-0.07052813740748531,-0.04030613952567455,87.43322810121462
6.9,-0.05427654702622313,-0.02988236173529881,87.32043931180021
6.91,-0.101253473662407,-0.05014577036640283,87.18573421733373
6.92,-0.040953171128071245,0.0036736352611162312,87.07347997194499
6.93,-0.0386315153593195,0.04072153291209052,86.96122572655625
6.94,0.004852469714868503,0.06386673316145533,86.86019690570637
6.95,0.06632405804244838,0.10669119509227669,86.77039350939538
6.96,0.03210578022553083,0.07601698971412243,86.66936468854551
6.97,0.02516172873701211,0.1286810824856721,86.53465959407902
6.98,-0.03689550248718983,-0.01078724700348971,86.38872907507366
6.99,-0.037460229566075386,0.03782676025050423,86.24226401204263
7.0,-0.03978188533482713,-0.01078724700348971,86.15246061573164
7.01,-0.07167850738299293,-0.0032582418747002617,86.10755891757614
7.02,-0.0780578317926261,-0.053611708934311074,86.05143179488176
7.03,-0.06414881299785215,-0.009047787197872838,85.93917754949302
7.04,-0.08558752617776688,-0.05766179445186678,85.82692330410428
7.05,-0.043274826896822986,0.003102469354794273,85.71466905871554
7.06,-0.08037948756137783,-0.03451659420250197,85.65854193602117
7.07,-0.01196384774527924,0.03203721492733166,85.6024148133268
7.08,0.24025999833920042,0.10958596775386298,85.5126114170158
7.09,0.7365923532263969,0.07601698971412243,85.4228080207048
7.1,0.8740092757552161,-0.21275930010492944,85.34423004893269
7.11,0.10633601737237702,-0.35048816978847436,85.28756838221265
7.12,-0.10819752515092572,-0.16935069122446061,85.22021583497941
7.13,-0.0154358734895386,-0.028727048879329396,85.15286328774617
7.14,-0.01137820484865718,-0.01599264537701483,85.08551074051292
7.15,-0.03978188533482713,0.007152554872349976,85.01815819327967
7.16,-0.033988203821816027,-0.013682019665075998,84.95080564604643
7.17,-0.04616120974446029,0.0036736352611162312,84.88345309881319
7.18,0.018782404327378946,0.03667144739453482,84.81610055157994
7.19,-0.025872866540053184,0.04072153291209052,84.77119885342444
7.2,-0.01890789923379796,0.009463180584288808,84.71507173073007
7.21,-0.03630985959056777,0.03088190207136224,84.63649375895795
7.22,-0.037460229566075386,0.0065684079227025195,84.54669036264696
7.23,-0.031666548053064285,0.013513266101844511,84.41198526818047
7.24,-0.007320536207775759,0.01120264038990568,84.26552020514944
7.25,-0.010206919055413058,0.07891176237570872,84.14204053522182
7.26,-0.01311421772078686,0.016992185713078256,84.02978628983308
7.27,0.007174125483620244,0.11132542755947986,83.90630661990546
7.28,0.045450071941419215,0.07138275724691928,83.8052777990556
7.29,0.008345411276864365,0.0806512221813256,83.69302355366685
7.3,0.03384179309766051,0.04418747147999877,83.63689643097248
7.31,0.008910138355749924,0.07775644951973931,83.65934728005023
7.32,0.07211773955545948,0.10033048386278215,83.9736591671387
7.33,0.054151052119804116,0.11768613878897438,85.06305989143517
7.34,0.08140436263046644,0.09106201892837583,87.69141286560873
7.35,0.051243753454430316,0.10610704814262924,91.83573269655598
7.36,0.09995669296274387,0.14026017313201725,96.2943644145917
7.37,0.11328006886089574,0.15646051520224005,100.01211811306172
7.38,0.1602569954970796,0.14141548598798664,102.7639507571629
7.39,0.15793533972832788,0.17671094279001856,104.63966574320622
7.4,0.20953466208427873,0.16630014604296833,105.81886986381367
7.41,0.20547699344339732,0.20044028998903082,106.47047903109404
7.42,0.2825936134378808,0.20969577388011165,106.63886039917716
7.43,0.2530186471584667,0.19697435142112257,106.4031264838608
7.44,0.2593979715680999,0.14026017313201725,105.78519359019705
7.45,0.23505195972281137,0.17555562993404916,104.72946913951722
7.46,0.18866067598324957,0.09626741730190096,103.39310907536552
7.47,0.10169270583487354,0.08816724626678954,101.85415682548842
7.48,0.10575037447575497,0.05113232965914076,100.24785202837808
7.49,0.018196761430756887,0.03724261330085677,98.7318851716044
7.5,0.004287742635982945,-0.0038423888243477185,97.40675053199158
7.51,-0.05139016417858583,-0.01888741803860112,96.40715320400611
7.52,-0.020643912105927642,-0.022366337649834863,95.72186776310912
7.53,-0.06471354007673771,0.025092356748189663,95.3059925111451
7.54,-0.06994249451086325,-0.04725099770481654,95.05903317128987
7.55,-0.07573617602387435,-0.01078724700348971,94.99168062405663
7.56,-0.03689550248718983,-0.008476621291550879,95.09270944490649
7.57,-0.0780578317926261,0.007736701821997434,95.29476708660623
7.58,-0.01658624346504622,0.01814749856904767,95.5085846968705
7.59,-0.05776948858821899,0.016992185713078256,95.65451521587586
7.6,-0.035159489615060144,-0.01888741803860112,95.643289791337
7.61,-0.08211550043350752,0.009463180584288808,95.43000672509838
7.62,-0.021815197899171763,0.008307867728319393,94.99168062405663
7.63,-0.09602451922828145,-0.013682019665075998,94.38550769895741
7.64,-0.043274826896822986,-0.004426535773995176,93.7114476825993
7.65,-0.0925524934840221,0.007736701821997434,93.05983851531893
7.66,-0.04616120974446029,-0.004426535773995176,92.55469441106959
7.67,-0.1041398565100443,0.00889201467796685,92.25107340449432
7.68,-0.0751505331272523,-0.03856667972005768,92.16127000818334
7.69,-0.11225519379180714,-0.0009476161627614306,92.2622988290332
7.7,-0.07109286448637087,-0.03625605400811885,92.48734186383635
7.71,-0.11110482381629952,0.000791843642855442,92.77920290184707
7.72,-0.06994249451086325,-0.04203261828796592,93.12719106255217
7.73,-0.10763279807204017,-0.0032582418747002617,93.50939004089956
7.74,-0.072264150279615,-0.04435622504323025,93.92473074883792
7.75,-0.11980580399468442,0.008307867728319393,94.34007145677626
7.76,-0.07052813740748531,-0.026987589073712525,94.69981958604589
7.77,-0.12212745976343617,-0.03046650868494627,94.91310265228451
7.78,-0.07979384466475578,-0.03336128134653256,94.94677892590113
7.79,-0.1070471551754181,0.023352896942572792,94.78962298235689
7.8,-0.06297752720460803,-0.021782190700187404,94.48653651980729
7.81,-0.11169046671292159,-0.020042730894570534,94.11556296599878
7.82,-0.05080452128196377,-0.017732105182631703,93.67777140898268
7.83,-0.12386347263556584,-0.024092816412126235,93.19454360978543
7.84,-0.06529918297335977,-0.02814290192968194,92.67817408099721
7.85,-0.12965715414857695,-0.02757173602335998,92.16127000818334
7.86,-0.08502279909888132,-0.058817107307836194,91.64490047939512
7.87,-0.10936881094416984,-0.0009476161627614306,91.13922183112011
7.88,-0.06124151433247835,-0.0032582418747002617,90.67897942502627
7.89,-0.11169046671292159,-0.0032582418747002617,90.21820247490676
7.9,-0.06065587143585629,-0.04320091218726084,89.7691854933518
7.91,-0.10008218786916288,-0.011371393953137167,89.31963396777117
7.92,-0.0693568516142412,-0.06808557224224251,88.94919495798831
7.93,-0.11225519379180714,-0.016576792326662287,88.61243222182208
7.94,-0.07400016315174468,-0.04203261828796592,88.29758579070794
7.95,-0.12501384261107346,-0.03451659420250197,88.03940102631384
7.96,-0.08270114333012958,-0.03913784562637963,87.81489253553634
7.97,-0.11633377825042507,-0.013097872715428541,87.62406031837548
7.98,-0.06588482586998183,-0.031037674591268227,87.46690437483124
7.99,-0.12965715414857695,-0.024092816412126235,87.32043931180021
8.0,-0.043274826896822986,-0.07560159632770647,87.14083251917823
8.01,-0.050218878385341705,-0.01888741803860112,86.99490200017287
8.02,0.06573841514582632,-0.03567190705847139,86.90509860386187
8.03,-0.02296556787467938,-0.01888741803860112,86.82652063208975
8.04,0.017611118534134825,0.02104227123063396,86.72549181123989
8.05,-0.04789722261658997,0.016408038763430798,86.57956129223452
8.06,-0.037460229566075386,0.004841929160411145,86.46730704684578
8.07,-0.0983461749970332,0.04244801167438189,86.36627822599591
8.08,-0.08849482484314068,-0.04492739094955221,86.28716571019812
8.09,-0.12269218684232172,-0.01599264537701483,86.2534894365815
8.1,-0.0809651304579999,-0.053611708934311074,86.21981316296488
8.11,-0.14879512737747644,-0.06924088509821193,86.15246061573164
8.12,-0.08037948756137783,-0.05014577036640283,86.05143179488176
8.13,-0.10357512943115874,0.016992185713078256,85.91672670041528
8.14,-0.06009114435697073,0.0019471564988248575,85.80447245502654
8.15,0.03733473465965637,0.11479136612738809,85.72589448325442
8.16,0.4310331719138367,0.16687131194929028,85.6473165114823
8.17,0.8374902579872834,0.07196690419656673,85.57996396424905
8.18,0.42697550327295525,-0.31576387889276436,85.53506226609355
8.19,-0.08326587040901513,-0.314608566036795,85.47893514339918
8.2,-0.06124151433247835,-0.088907165736343,85.43403344524368
8.21,-0.021815197899171763,0.03377667473294853,85.37790632254931
8.22,-0.025287223643431122,-0.0038423888243477185,85.29879380675153
8.23,-0.05950550146034867,0.029726589215392823,85.17531413682391
8.24,-0.02296556787467938,0.008307867728319393,85.04060904235743
8.25,-0.06762083874211151,0.05402710232072704,84.93958022150755
8.26,-0.02240084079579382,-0.001531763112408888,84.89467852335206
8.27,-0.0751505331272523,0.014681560001139425,84.84977682519656
8.28,0.0060237555081126245,0.029142442265745368,84.77119885342444
8.29,-0.043839553975708545,0.06443789906777728,84.67017003257457
8.3,0.017025475637512767,0.04882170394720193,84.55791578718583
8.31,-0.06297752720460803,0.026247669604159078,84.45688696633596
8.32,0.021083144278394188,0.03839792615682619,84.34463272094722
8.33,-0.04501083976895267,0.04534278433596818,84.20939308245507
8.34,0.024576085840390047,0.04072153291209052,84.09713883706632
8.35,-0.01890789923379796,0.05923250069425216,83.98488459167758
8.36,0.048336454789056515,0.04244801167438189,83.88385577082772
8.37,-0.01079256195203512,0.07255105114621418,83.79405237451672
8.38,0.05703743496744142,0.08527247360520326,83.73792525182235
8.39,0.003702099739360884,0.09221733178434526,83.8052777990556
8.4,0.0790827068617147,0.06443789906777728,84.14204053522182
8.41,0.03095541025002321,0.07717230257009185,85.16408871228504
8.42,0.10748638734788464,0.10669119509227669,87.56793319568112
8.43,0.06341675937707457,0.13042054229128897,91.4316174131565
8.44,0.12777473055229174,0.11363605327141868,95.76676946126462
8.45,0.13068202921766556,0.16282122643173458,99.48452315973464
8.46,0.19794729905825653,0.1720896913661409,102.31439923158227
8.47,0.15967135260045756,0.1732450042221103,104.22379049124221
8.48,0.2669276659532407,0.1732450042221103,105.42598000495308
8.49,0.22808699241655614,0.20564568836255595,106.08828005274667
8.5,0.27157097749074416,0.15530520234627063,106.2903376944464
8.51,0.2431672970045742,0.1448814245558949,106.06582920366891
8.52,0.2924449635917733,0.1379365663767529,105.41475458041421
8.53,0.20547699344339732,0.13967602618236977,104.34727016116983
8.54,0.20315533767464555,0.09395679158996212,103.03336094609588
8.55,0.07385375242758915,0.04072153291209052,101.5173940893222
8.56,0.10342871870700322,0.023937043892220247,99.92231471675073
8.57,-0.028194522308804922,-0.00615301453628655,98.37267158636043
8.58,0.012967806996631345,-0.009047787197872838,97.03577697818307
8.59,-0.04501083976895267,0.007736701821997434,95.96882710296434
8.6,-0.028194522308804922,-0.07155151081015076,95.22741453937299
8.61,-0.09023083771527035,-0.03567190705847139,94.72227043512365
8.62,-0.01428550351403098,-0.02062687784421799,94.40795854803517
8.63,-0.07920820176813372,-0.005581848629964591,94.28394433408188
8.64,-0.01428550351403098,-0.04725099770481654,94.25026806046526
8.65,-0.07573617602387435,-0.013097872715428541,94.29516975862076
8.66,-0.0357242166939457,-0.05476702179028049,94.35183142534079
8.67,-0.07458580604836673,-0.013097872715428541,94.41918397257403
8.68,-0.00790617910439782,-0.02352165050580428,94.31762060769852
8.69,-0.11169046671292159,-0.04320091218726084,93.99208329607116
8.7,-0.029344892284312543,-0.04146145238164396,93.44203749366632
8.71,-0.086758811971011,-0.017732105182631703,92.77920290184707
8.72,-0.021815197899171763,-0.013682019665075998,92.11636831002784
8.73,-0.11806979112255474,-0.05535116873992795,91.57754793216186
8.74,-0.028194522308804922,-0.00615301453628655,91.22902522743111
8.75,-0.10472549940666635,-0.013097872715428541,91.09432013296461
8.76,-0.05891985856372661,-0.055922334646249905,91.12799640658123
8.77,-0.13894377722358392,-0.06634611243662564,91.28515235012547
8.78,-0.05080452128196377,-0.0327771343968851,91.54387165854524
8.79,-0.1273354983798252,-0.0368272199144408,91.92553609286698
8.8,-0.055447832819467247,-0.055922334646249905,92.38631304298647
8.81,-0.13139316702070664,-0.03741136686408826,92.90268257177469
8.82,-0.05659820279497487,-0.03625605400811885,93.39713579551082
8.83,-0.16213941909336482,-0.08544122716843475,93.82370192798804
8.84,-0.06009114435697073,-0.04666685075516908,94.11556296599878
8.85,-0.14647347160872468,-0.05766179445186678,94.26149348500414
8.86,-0.06529918297335977,-0.07734105613332334,94.2390426359264
8.87,-0.16734745770975384,-0.0848570802187873,94.08188669238216
8.88,-0.032252190949686343,-0.013682019665075998,93.77880022983254
8.89,-0.1261851284043176,-0.04725099770481654,93.37468494643308
8.9,-0.06414881299785215,-0.060556567113453065,92.90268257177469
8.91,-0.13430046568608042,-0.058245941401514234,92.39753846752535
8.92,-0.03978188533482713,-0.01888741803860112,91.89185981925034
8.93,-0.13488610858270247,-0.03220596849056314,91.39794113953988
8.94,-0.03921715825594157,-0.03220596849056314,90.91471334034263
8.95,-0.14473745873659502,-0.055922334646249905,90.42079466063215
8.96,-0.04268918400020093,-0.024676963361773694,89.9375668614349
8.97,-0.1244491155321879,-0.0518722491286942,89.48854987987994
8.98,-0.052540534154093446,-0.05245639607834166,89.08390005245481
8.99,-0.14241580296784326,-0.08254645450684846,88.72468646721083
9.0,-0.031080905156442223,-0.031037674591268227,88.3879237310446
9.01,-0.13488610858270247,-0.03567190705847139,88.0955281490082
9.02,-0.05427654702622313,-0.03913784562637963,87.84856880915297
9.03,-0.115748135353803,-0.0368272199144408,87.60160946929774
9.04,-0.04616120974446029,-0.03046650868494627,87.36587555398138
9.05,-0.13662212145483216,-0.04377207809358279,87.16328336825597
9.06,-0.06239188430798597,-0.050716936272724784,86.96122572655625
9.07,-0.14532310163321707,-0.0327771343968851,86.80406978301201
9.08,-0.05139016417858583,-0.03393244725285452,86.70304096216213
9.09,-0.1360364785582101,-0.03393244725285452,86.6356884149289
9.1,-0.02296556787467938,-0.011371393953137167,86.56833586769565
9.11,-0.10357512943115874,0.005413095066733104,86.47853247138465
9.12,-0.01658624346504622,0.03782676025050423,86.34382737691816
9.13,-0.05427654702622313,0.06617735887339415,86.208587738426
9.14,0.05703743496744142,0.05981664764389962,86.09633349303726
9.15,-0.05080452128196377,0.08006707523167814,86.02898094580402
9.16,0.0031164568427388233,0.04534278433596818,85.93917754949302
9.17,-0.11342647958505127,0.005997242016380561,85.82692330410428
9.18,-0.046746852641082345,-0.0327771343968851,85.71466905871554
9.19,-0.13371482278945837,-0.03913784562637963,85.63609108694342
9.2,-0.04848286551321203,-0.04261676523761338,85.6024148133268
9.21,-0.13662212145483216,-0.04492739094955221,85.59118938878792
9.22,-0.05950550146034867,-0.04203261828796592,85.52383684155468
9.23,-0.1476447574019688,-0.0669172783429476,85.41158259616594
9.24,-0.01890789923379796,-0.02352165050580428,85.31001923129041
9.25,-0.15400316599386546,-0.024676963361773694,85.24266668405716
9.26,0.02921939737789353,0.012357953245875096,85.19776498590167
9.27,0.2623052702334737,0.10090164976910411,85.17531413682391
9.28,0.8896752232398563,0.026247669604159078,85.1416378632073
9.29,0.4959767859856759,-0.32155342421593697,85.08551074051292
9.3,0.04022111750729367,-0.38290183497224545,85.02938361781855
9.31,-0.15285279601835786,-0.1433107183135095,84.93958022150755
9.32,0.04371405906928953,0.005413095066733104,84.83855140065769
9.33,-0.1128408366884292,-0.04840631056078595,84.77119885342444
9.34,-0.04906850840983409,-0.04492739094955221,84.72629715526895
9.35,-0.10298948653453668,-0.024676963361773694,84.7038463061912
9.36,-0.018343172154912404,0.004841929160411145,84.64771918349683
9.37,-0.11980580399468442,-0.0368272199144408,84.58036663626358
9.38,-0.004998880439024018,0.007736701821997434,84.53546493810808
9.39,-0.09370286345952972,-0.002102929018730846,84.52423951356921
9.4,0.0060237555081126245,0.027987129409775952,84.49056323995259
9.41,-0.10183911655902907,-0.0038423888243477185,84.34463272094722
9.42,-0.016021516386160662,-0.0049977016803171345,84.14204053522182
9.43,-0.09487414925277383,0.020458124280986503,83.93998289352209
9.44,0.02689774160914179,0.04477161842964622,83.79405237451672
9.45,-0.08326587040901513,0.01814749856904767,83.68179812912798
9.46,0.028633754481271468,0.04072153291209052,83.56954388373924
9.47,-0.07167850738299293,0.02567650369783712,83.44606421381162
9.48,0.04195713037942335,0.04477161842964622,83.32204999985834
9.49,-0.056012559898352805,0.03667144739453482,83.2097957544696
9.5,0.05935909073619316,0.07370636400218361,83.2097957544696
9.51,-0.049654151306456146,0.05750602193196079,83.45728963835049
9.52,0.07791142106847058,0.10090164976910411,84.33287275238268
9.53,-0.006734893311153699,0.07717230257009185,86.42240534869028
9.54,0.09878540716949974,0.10610704814262924,90.1620753522124
9.55,-0.007320536207775759,0.07775644951973931,94.50898736888503
9.56,0.15734969683170583,0.15067096987906747,98.54105295444353
9.57,0.03733473465965637,0.11942559859459126,101.61842291017206
9.58,0.19968331193038621,0.16745545889893773,103.80844978330387
9.59,0.1138657117575178,0.11768613878897438,105.20093697014994
9.6,0.2449033098767039,0.17035023156052403,105.99847665643567
9.61,0.18113098159810878,0.177295089739666,106.26788684536865
9.62,0.32724888430531296,0.2224301773824262,106.07705462820779
9.63,0.17184435852310181,0.1408313390383392,105.44843085403083
9.64,0.2536042900550888,0.14372611169992547,104.37025555427324
9.65,0.10052142004162942,0.08180653503729501,102.932332125246
9.66,0.1474983466778133,0.03782676025050423,101.37146357031683
9.67,-0.027608879412182864,0.010618493440258222,99.720257075051
9.68,0.042542773276045415,0.024508209798542208,98.11395227794065
9.69,-0.09196685058740003,-0.015421479470692872,96.64288711932247
9.7,-0.023551210771301442,-0.029311195828976854,95.43000672509838
9.71,-0.1041398565100443,0.0002076966932079848,94.54266364250165
9.72,-0.020643912105927642,-0.011371393953137167,93.91350532429904
9.73,-0.12907151125195487,-0.024092816412126235,93.55429173905506
9.74,-0.027608879412182864,-0.017147958232984244,93.29557243063529
9.75,-0.1435661729433509,-0.05419585588395853,93.14964191162993
9.76,-0.018343172154912404,-0.013682019665075998,93.09351478893555
9.77,-0.1435661729433509,-0.05940125425748365,93.09351478893555
9.78,-0.021815197899171763,-0.014837332521045413,93.04861309078005
9.79,-0.1551744517871096,-0.05766179445186678,92.94758426993019
9.8,-0.018343172154912404,-0.005581848629964591,92.67817408099721
9.81,-0.14415181583997294,-0.04146145238164396,92.20617170633882
9.82,-0.029930535180934605,-0.006737161485934007,91.63367505485624
9.83,-0.14126543299233565,-0.03508776010882393,91.08309470842575
9.84,-0.035159489615060144,-0.0038423888243477185,90.64530315140965
9.85,-0.16038249040349864,-0.05535116873992795,90.35290756937326
9.86,-0.04848286551321203,-0.031037674591268227,90.19575162582902
9.87,-0.15749610755586133,-0.058245941401514234,90.24065332398452
9.88,-0.030516178077556664,-0.012526706809106582,90.37589296247667
9.89,-0.1667618148131318,-0.055922334646249905,90.65652857594851
9.9,-0.029930535180934605,-0.004426535773995176,91.04941843480911
9.91,-0.14588782871210262,-0.03046650868494627,91.54387165854524
9.92,-0.05486218992284519,-0.04261676523761338,92.10514288548896
9.93,-0.1667618148131318,-0.06808557224224251,92.67817408099721
9.94,-0.02240084079579382,-0.01599264537701483,93.14964191162993
9.95,-0.15053114024960612,-0.04203261828796592,93.48693919182182
9.96,-0.03921715825594157,-0.0026870759683783035,93.6665459844438
9.97,-0.14241580296784326,-0.02119804375053995,93.65532055990492
9.98,-0.06471354007673771,-0.04030613952567455,93.50939004089956
9.99,-0.19518641111703824,-0.06460665263100877,93.22821988340205
