time_s,ECG1,ECG2,NIBP
0.0,-0.0582046594067277,-0.071087107879703,109.93100085589543
0.01,-0.10400236385555336,-0.07977185108604488,105.87844764044218
0.02,-0.039054082492815605,-0.08093139445691887,103.48802340429678
0.03,-0.04717261766315782,-0.07688482473407292,102.25241644326735
0.04,-0.046026856651214365,-0.07629322097342293,101.55619944407192
0.05,-0.060528917459527286,-0.07340619462145097,101.12967742579349
0.06,-0.04137834054561519,-0.06704053815685707,100.64731547754546
0.07,-0.048907627195529345,-0.06876802113795503,100.14237994058631
0.08,-0.02281701215213116,-0.059515338321389166,99.53645729623534
0.09,-0.029789786310529923,-0.06588099478598308,98.86281388575102
0.1,-0.04835111470401395,-0.059515338321389166,97.86363556438012
0.11,-0.07444172974741214,-0.06820008152773105,96.46050881344189
0.12,-0.04835111470401395,-0.07918024732539489,94.82095342284514
0.13,-0.06458818504469839,-0.07456573799232495,93.63168172285431
0.14,-0.06687970706858531,-0.0635619080442351,92.56478263535006
0.15,-0.09182456110004004,-0.08149933406714285,91.80203295363765
0.16,-0.07093897465375643,-0.06588099478598308,91.2745238279674
0.17,-0.08314951343818243,-0.06820008152773105,91.04997602447263
0.18,-0.03731907296044408,-0.044464938650453374,91.07254961318374
0.19,-0.027465528257730337,-0.034620652073237515,91.18422947312294
0.2,0.05257406243374842,-0.010293905435309855,91.31967100538962
0.21,0.05607681752740413,-0.01204505256683383,91.50976438400953
0.22,0.05607681752740413,0.015168720423065787,91.75688577621543
0.23,0.04039625967823508,-0.00856642245421188,91.99212633225757
0.24,0.021278418793235658,-0.019570252402301726,92.20598138320497
0.25,-0.04658336914272976,-0.04214585190870541,92.30696849059679
0.26,-0.11850442466386629,-0.08093139445691887,92.32954207930791
0.27,-0.14750854628049212,-0.09598179412785465,92.21667413575234
0.28,-0.15097856534523518,-0.0925031640152327,91.99212633225757
0.29,-0.15621632997126242,-0.09366270738610669,91.67847225753471
0.3,-0.1968090058229735,-0.12956122358234817,91.38620368790659
0.31,-0.12429870178140892,-0.004519852731365937,91.08324236573111
0.32,0.4608905510614844,0.6675656835174506,90.68998668871116
0.33,1.4271271804478594,1.0409386489388734,90.26346467043274
0.34,0.6511196150730112,0.4730463670157334,89.87139707702916
0.35,-0.16201060708880505,-0.08265887743801684,89.41042063387587
0.36,-0.36035820627067405,-0.14693070999503194,89.02904579301968
0.37,-0.231607404557142,-0.12144441998623029,88.56925743348276
0.38,-0.1712749032710907,-0.10871310705704247,88.17600175646282
0.39,-0.18171769649423253,-0.10291539020267255,87.78274607944287
0.4,-0.14459503970726448,-0.09539019036720466,87.41206399113405
0.41,-0.1672156356859196,-0.09077568103413472,87.07583632770007
0.42,-0.12835796936658003,-0.07456573799232495,86.77287500552458
0.43,-0.15968634903600545,-0.07629322097342293,86.39150016466839
0.44,-0.12315294076946547,-0.07688482473407292,86.00893724019582
0.45,-0.1393900111101499,-0.07281459086080098,85.65013598805074
0.46,-0.11212089902589559,-0.04851150837329932,85.2794538997419
0.47,-0.10750511894920908,-0.0427137915189294,84.8980790588857
0.48,-0.0755874907593556,-0.02361682212514767,84.53927780674061
0.49,-0.07964675834452671,-0.013772535547931807,84.25770198965986
0.5,-0.00134217718541948,0.020374833516785713,84.10087495229844
0.51,-0.030935547322473382,0.032538206835749546,84.20186205969027
0.52,0.02939695396357788,0.06611763629024307,84.8980790588857
0.53,0.047925546328149236,0.09621843563211464,86.91900929033865
0.54,0.11231731519937162,0.14482460060711796,90.68998668871116
0.55,0.09955026392343022,0.16162614740957773,96.49377515470037
0.56,0.1395864272836259,0.19113534299079932,104.80085580039055
0.57,0.13493791117802675,0.20041168995779118,115.75736291059576
0.58,0.15814775567710995,0.19288649012232328,127.40889893638003
0.59,0.11637658278454273,0.15814751729695578,136.25418146028784
0.6,0.08855095820877301,0.10779020519042849,140.22832115706038
0.61,0.011392138061609245,0.045269519764937365,139.85763906875155
0.62,-0.039054082492815605,0.013417573291541812,135.9631009742761
0.63,-0.088354542035297,-0.016091622289679773,130.2151524382565
0.64,-0.1156236541195513,-0.062402364673361126,123.92900202401925
0.65,-0.1486543072924356,-0.06472145141510909,116.46427266233856
0.66,-0.13012571492786423,-0.07051916826947902,110.18881500064869
0.67,-0.16374561662117657,-0.07629322097342293,106.1707162100703
0.68,-0.13359573399260727,-0.07340619462145097,103.90266458641146
0.69,-0.14459503970726448,-0.07745276434429692,102.81437999381247
0.7,-0.12662295983420851,-0.06644893439620707,102.25241644326735
0.71,-0.13765500157777838,-0.06992756450882902,101.86034884986377
0.72,-0.10750511894920908,-0.05371762146701924,101.37679881799937
0.73,-0.12662295983420851,-0.06820008152773105,100.90512962229872
0.74,-0.10226735432318185,-0.05835579495051518,100.35504690791734
0.75,-0.12141793123709393,-0.05371762146701924,99.68259158104941
0.76,-0.11212089902589559,-0.0496710517441733,98.53727897486444
0.77,-0.14518428822769253,-0.07456573799232495,96.98801793911214
0.78,-0.11444515707869518,-0.06067488169226315,95.07995565121477
0.79,-0.15097856534523518,-0.06588099478598308,93.44040026061802
0.8,-0.13647650453692226,-0.0635619080442351,92.30696849059679
0.81,-0.16315636810074852,-0.06704053815685707,91.66659142137097
0.82,-0.14459503970726448,-0.055468768598543224,91.50976438400953
0.83,-0.14459503970726448,-0.06183442506313713,91.84718013105989
0.84,-0.08488452297055395,-0.04619242163155135,92.16083420578273
0.85,-0.08138176787689823,-0.02420842588579766,92.41864835053599
0.86,-0.029789786310529923,-0.012612992177057823,92.5766634715138
0.87,-0.025730518725358812,-0.014364139308581799,92.67765057890563
0.88,-0.00019641617347602148,0.005892373456073918,92.74418326142259
0.89,-0.030935547322473382,-0.005087792341589929,92.82378486371968
0.9,-0.06805820410944144,-0.015523682679455782,92.94734555982262
0.91,-0.14230351768337757,-0.04214585190870541,93.05902541976182
0.92,-0.1689833812472038,-0.0780443681049469,93.08159900847293
0.93,-0.2101325695904303,-0.0849779641797648,92.96873106491736
0.94,-0.17651266789711798,-0.07572528136319893,92.74418326142259
0.95,-0.21595958273688562,-0.08729705092151277,92.39726284544125
0.96,-0.2524929910034256,-0.13881390639891406,91.9814335797102
0.97,-0.1712749032710907,-0.03230156533148955,91.62263232756511
0.98,0.3860559889671202,0.6612000270528567,91.25195023925627
0.99,1.4706006268438854,1.0536699618680612,90.8135473848141
1.0,0.6870637748191231,0.5540960822247822,90.40959895524679
1.01,-0.19795476683491697,-0.06008327793161316,89.94981059570988
1.02,-0.3910973374196714,-0.15038567595722788,89.44487505875074
1.03,-0.24552021684502684,-0.1000283638507006,89.00647220430857
1.04,-0.19448474777017394,-0.08209093782779285,88.64767095216348
1.05,-0.22116461133400017,-0.09366270738610669,88.29956245256577
1.06,-0.19854401535534505,-0.0994604242404766,87.92888036425693
1.07,-0.18983623166457475,-0.08613750755063879,87.57007911211184
1.08,-0.18636621259983172,-0.08381842080889082,87.22197061251413
1.09,-0.20492754099331573,-0.08033979069626887,86.87386211291641
1.1,-0.1730426488323749,-0.06472145141510909,86.51506086077133
1.11,-0.1625998556092331,-0.0641298476544591,86.16695236117361
1.12,-0.12141793123709393,-0.05255807809614526,85.85211020283438
1.13,-0.1289472178870081,-0.037507678425209474,85.51588253940042
1.14,-0.10112159331123839,-0.030574082350391572,85.17846679235008
1.15,-0.10285660284360991,-0.010885509195959847,84.85293188146348
1.16,-0.04370259859841478,0.011690090310443836,84.72937118536053
1.17,-0.03440556638721643,0.03658477655859549,85.03233250753601
1.18,0.021834931284751054,0.06320694578784511,86.31308664598768
1.19,0.03345622154874899,0.11126883530305044,89.26428634906182
1.2,0.08098893552994618,0.13384443480945413,94.30532513333863
1.21,0.08563745163554536,0.1633536303906757,101.48966676155494
1.22,0.1471157139335401,0.19866054282626722,111.5693681628758
1.23,0.13667292071039827,0.21025597653500705,123.60346711313265
1.24,0.1703255584326233,0.21603002923895098,134.26770565370975
1.25,0.12623012748725645,0.16915134724504563,140.67741676404992
1.26,0.08098893552994618,0.11763449176764434,142.36093124845252
1.27,-0.0071691903318747835,0.058568772304349176,140.09406770841005
1.28,-0.05241038228918506,0.00996260732934586,135.0423361715859
1.29,-0.11444515707869518,-0.031733625721265556,128.75618575734865
1.3,-0.13533074352497879,-0.044464938650453374,121.93064538127742
1.31,-0.17710191641754602,-0.06183442506313713,115.08371950011144
1.32,-0.15736209098320586,-0.07340619462145097,110.30168294420427
1.33,-0.19101472870543088,-0.0786123077151709,107.4728558536167
1.34,-0.1672156356859196,-0.07513367760254895,105.96874199528663
1.35,-0.1823069450146606,-0.07513367760254895,105.15965705253564
1.36,-0.14230351768337757,-0.06876802113795503,104.621455174318
1.37,-0.15562708145083434,-0.07281459086080098,104.26265392217292
1.38,-0.12662295983420851,-0.06704053815685707,103.81355831518337
1.39,-0.1370657530573503,-0.05430922522766924,103.38703629690495
1.4,-0.10691587042878102,-0.05430922522766924,102.71339288642064
1.41,-0.13765500157777838,-0.06183442506313713,101.79262808373043
1.42,-0.12315294076946547,-0.05487716483789323,100.55820920631737
1.43,-0.14112502064252141,-0.0571962515796412,98.90796106317326
1.44,-0.13241723695175114,-0.06992756450882902,97.1899921538958
1.45,-0.14286003017489296,-0.05083059511504728,95.65261195430726
1.46,-0.1498328043332917,-0.06644893439620707,94.33859147459711
1.47,-0.1672156356859196,-0.06935962489860503,93.44040026061802
1.48,-0.1417142691629495,-0.06644893439620707,92.84635845243079
1.49,-0.16433486514160464,-0.06704053815685707,92.50894270538045
1.5,-0.13127147593980767,-0.06067488169226315,92.35211566801902
1.51,-0.12023943419623781,-0.051398534725271276,92.43052918669974
1.52,-0.07676598780021172,-0.02709545223776962,92.59923706022491
1.53,-0.07444172974741214,-0.016683226050329767,92.81190402755594
1.54,0.007332870476438135,-0.002200765989617969,92.99130465362848
1.55,-0.019346993087388114,0.014577116662415795,93.20515970457588
1.56,-0.0019314257058475445,0.001277864123003982,93.32872040067882
1.57,-0.05241038228918506,-0.02998247858974158,93.38456033064843
1.58,-0.07617673927978366,-0.04041836892760743,93.37386757810106
1.59,-0.18404195454703212,-0.08613750755063879,93.2835732232566
1.6,-0.1666591231944042,-0.08209093782779285,93.12674618589517
1.61,-0.19160397722585895,-0.09654973373807864,92.91289113494777
1.62,-0.1823069450146606,-0.09018407727348474,92.56478263535006
1.63,-0.2553737615477406,-0.14286047612176,92.17271504194647
1.64,-0.16374561662117657,-0.07051916826947902,91.77945936492654
1.65,0.2996656086665834,0.6224144845046433,91.36363009919548
1.66,1.4972804904077117,1.1179181302746504,90.89196090349482
1.67,0.7143328869033774,0.6472855066023689,90.33118543656607
1.68,-0.12662295983420851,-0.03982676516695744,89.79298355834845
1.69,-0.38644882131407227,-0.15213682308875187,89.16329924166999
1.7,-0.21710534374882906,-0.10177951098222457,88.65836370471085
1.71,-0.21478108569602947,-0.10177951098222457,88.28768161640201
1.72,-0.17765842890906142,-0.0925031640152327,87.90630677554581
1.73,-0.1968090058229735,-0.1069856240759445,87.60334545337034
1.74,-0.18171769649423253,-0.09425431114675668,87.3906784860393
1.75,-0.19160397722585895,-0.0855695679404148,87.08652908024744
1.76,-0.16433486514160464,-0.0780443681049469,86.69446148684388
1.77,-0.16780488420634768,-0.07745276434429692,86.27863222111282
1.78,-0.13997925963057797,-0.06472145141510909,85.94240455767884
1.79,-0.14112502064252141,-0.05660464781899121,85.61686964679225
1.8,-0.10750511894920908,-0.05314968185679526,85.2236139697723
1.81,-0.10865087996115254,-0.027663391847993612,84.85293188146348
1.82,-0.059350420418671154,-0.020138192012525716,84.49413062931839
1.83,-0.05702616236587157,-0.007998482843987888,84.40383627447393
1.84,0.012570635102465375,0.045269519764937365,84.819665540205
1.85,0.009657128529237722,0.06320694578784511,86.13249793629876
1.86,0.06766537176248939,0.09214820175884271,88.97320586305008
1.87,0.08969671922071647,0.13441237441967813,93.69940248898766
1.88,0.13028939507242757,0.16971928685526963,100.86117052849286
1.89,0.14132143681599746,0.19634145608451925,111.27828767686407
1.9,0.18888688682610733,0.21834911598069895,123.61534794929639
1.91,0.16859054890025177,0.21546208962872698,134.36869276110158
1.92,0.15870426816862535,0.18072311680335945,140.5764296566581
1.93,0.07460540989197549,0.13152534806770616,142.02470358501856
1.94,0.03345622154874899,0.07248329275483699,139.64497210142054
1.95,-0.03499481490764449,0.020942773127009706,134.7061085081519
1.96,-0.07270672021504061,-0.025935908866895636,128.6326250612457
1.97,-0.12023943419623781,-0.059515338321389166,122.00905889995813
1.98,-0.11735866365192282,-0.062402364673361126,115.18470660750327
1.99,-0.1625998556092331,-0.06588099478598308,110.35752287417387
2.0,-0.13997925963057797,-0.06704053815685707,107.4954294423278
2.01,-0.1590971005155774,-0.07281459086080098,105.91171398170066
2.02,-0.13068222741937963,-0.07918024732539489,105.0586699451438
2.03,-0.13997925963057797,-0.06935962489860503,104.47532088950395
2.04,-0.11329939606675173,-0.06124282130248714,104.082065212484
2.05,-0.12721220835463656,-0.07281459086080098,103.59970326423597
2.06,-0.1057373733879249,-0.05835579495051518,103.12803406853531
2.07,-0.13359573399260727,-0.0635619080442351,102.46627149421475
2.08,-0.10167810580275378,-0.056036708208767216,101.65718655146374
2.09,-0.12780145687506464,-0.071087107879703,100.49048844018402
2.1,-0.10806163144072448,-0.06876802113795503,98.99706733440134
2.11,-0.13824425009820646,-0.07572528136319893,97.23513933131802
2.12,-0.11444515707869518,-0.06124282130248714,95.52905125820432
2.13,-0.12835796936658003,-0.06992756450882902,94.03563015242162
2.14,-0.13418498251303534,-0.071087107879703,93.03645183105071
2.15,-0.1521570623860913,-0.08149933406714285,92.35211566801902
2.16,-0.12082868271666587,-0.06704053815685707,92.04915434584353
2.17,-0.13591999204540686,-0.07051916826947902,91.97074082716283
2.18,-0.09532731619369575,-0.0496710517441733,92.03727350967979
2.19,-0.07038246216224103,-0.027663391847993612,92.11568702836051
2.2,-0.041967589066043254,-0.01145344880618384,92.26182131317456
2.21,0.011981386582037309,-0.013772535547931807,92.41864835053599
2.22,0.021278418793235658,0.002437407493877966,92.48636911666934
2.23,0.006776357984922741,0.002437407493877966,92.53151629409156
2.24,-0.02514127020493075,-0.01204505256683383,92.54220904663893
2.25,-0.08950030304724045,-0.05314968185679526,92.5766634715138
2.26,-0.11850442466386629,-0.071087107879703,92.58735622406117
2.27,-0.15736209098320586,-0.08613750755063879,92.51963545792782
2.28,-0.14403852721574908,-0.08149933406714285,92.3628084205664
2.29,-0.17071839077957532,-0.08441002456954082,92.10499427581314
2.3,-0.19216048971737434,-0.12144441998623029,91.74619302366806
2.31,-0.2507579814710541,-0.13997344976978804,91.31967100538962
2.32,0.13087864359285564,0.40763865523827025,90.85869456223634
2.33,1.2687830085972733,1.1242837867392441,90.3537590252772
2.34,0.8738228197659068,0.9037339047689273,89.85951624086542
2.35,0.08157818405037426,0.04931608948778331,89.41042063387587
2.36,-0.33659184928007546,-0.15213682308875187,88.97320586305008
2.37,-0.2420501977802838,-0.1133512805405384,88.53480300860791
2.38,-0.16839413272677575,-0.10350699396332255,88.04174830781251
2.39,-0.1782476774294895,-0.11219173716966442,87.63661179462882
2.4,-0.13880076258972185,-0.09714133749872864,87.25523695377262
2.41,-0.1649241136620327,-0.10871310705704247,86.90712845417491
2.42,-0.12662295983420851,-0.08961613766326074,86.53763444948245
2.43,-0.16086484607686158,-0.0919352244050087,86.2002187024321
2.44,-0.11097513801395213,-0.07572528136319893,85.87468379154551
2.45,-0.1156236541195513,-0.06992756450882902,85.53845612811153
2.46,-0.09532731619369575,-0.059515338321389166,85.19034762851382
2.47,-0.09820808673801074,-0.05023899135439729,84.76382561023539
2.48,-0.0628204394834142,-0.040986308537831424,84.31473000324584
2.49,-0.06458818504469839,-0.02361682212514767,84.04503502232885
2.5,-0.0065799418114467195,0.011122150700219845,83.91078157367853
2.51,-0.008904199864246306,0.018647350535687737,84.02246143361774
2.52,0.03460198256069245,0.05452220258150323,84.74125202152428
2.53,0.05954683659214718,0.08926117540687074,86.80614134678308
2.54,0.10652303808182897,0.12284060486136428,90.87057539840008
2.55,0.11929008935777037,0.16510477752219968,97.09969779905134
2.56,0.1575585071566819,0.19520557686407125,106.23724889258726
2.57,0.16394203279465258,0.2067773464223851,118.01353369809084
2.58,0.20512395716679177,0.22298728946419488,129.57596345264702
2.59,0.19350266690279383,0.20329871630976315,137.72502897735941
2.6,0.16335278427422453,0.16510477752219968,141.07067244106986
2.61,0.07054614230680438,0.08926117540687074,140.0596132835352
2.62,0.03925049866629162,0.03774431992946947,135.92864654940124
2.63,-0.04425911108993017,-0.016091622289679773,129.99060463476172
2.64,-0.06167467847147074,-0.04678402539220134,123.61534794929639
2.65,-0.12082868271666587,-0.06876802113795503,116.49753900359704
2.66,-0.09126804860852464,-0.06528939102533309,110.80661848116341
2.67,-0.10750511894920908,-0.06992756450882902,107.22573446141081
2.68,-0.09820808673801074,-0.06935962489860503,105.11569795872978
2.69,-0.10053234479081033,-0.07745276434429692,104.03810611867814
2.7,-0.088354542035297,-0.071655047489927,103.44287622687455
2.71,-0.0987973352584388,-0.06528939102533309,102.9153671012043
2.72,-0.0686474526298695,-0.055468768598543224,102.36528438682292
2.73,-0.08197101639732629,-0.05487716483789323,101.79262808373043
2.74,-0.0582046594067277,-0.05314968185679526,101.06314474327651
2.75,-0.09182456110004004,-0.05255807809614526,100.26594063668927
2.76,-0.0622639269918988,-0.04041836892760743,99.12062803050428
2.77,-0.08138176787689823,-0.06588099478598308,97.60582141962686
2.78,-0.08776529351486893,-0.06820008152773105,95.80943899166869
2.79,-0.10226735432318185,-0.058923734560739176,94.09147008239123
2.8,-0.09647307720563922,-0.056036708208767216,92.66576974274187
2.81,-0.11968292170472242,-0.06704053815685707,91.64520591627623
2.82,-0.10226735432318185,-0.06008327793161316,90.97156250579191
2.83,-0.12429870178140892,-0.07340619462145097,90.74701470229714
2.84,-0.07211747169461255,-0.05776419118986519,90.7577074548445
2.85,-0.09300305814089617,-0.043873334889803384,90.83612097352523
2.86,-0.039054082492815605,-0.018410709031427743,90.90384173965856
2.87,-0.029789786310529923,-0.009158026214861871,90.99413609450302
2.88,0.05083905290137689,0.0035969508647519495,91.06066877702
2.89,0.025894198869922166,0.0035969508647519495,91.16165588441181
2.9,0.054898320486548004,0.018647350535687737,91.20680306183405
2.91,-0.022227763631703097,-0.007998482843987888,91.30779016922588
2.92,-0.04252410155755865,-0.025367969256671643,91.3529373466481
2.93,-0.12835796936658003,-0.056036708208767216,91.3529373466481
2.94,-0.1161801666110667,-0.07340619462145097,91.25195023925627
2.95,-0.1498328043332917,-0.07918024732539489,91.03809518830887
2.96,-0.16086484607686158,-0.08209093782779285,90.72444111358602
2.97,-0.17765842890906142,-0.10291539020267255,90.36445177782456
2.98,-0.21072181811085838,-0.0925031640152327,89.92723700699877
2.99,0.10072876096428635,0.4157554588343882,89.48883415255659
3.0,1.2438381545658186,1.1144395001620284,89.0183530404723
3.01,0.8343759049261392,0.8429643664749602,88.55737659731902
3.02,0.1395864272836259,0.03078705970422557,88.19857534517394
3.03,-0.3551531776735595,-0.14577116662415796,87.74947973818439
3.04,-0.22463463039874323,-0.10871310705704247,87.30038413119485
3.05,-0.19333898675823047,-0.11507876352163639,86.88455486546378
3.06,-0.1370657530573503,-0.0930947677758827,86.447340094638
3.07,-0.15562708145083434,-0.09714133749872864,86.06596525378178
3.08,-0.10924012848158061,-0.08093139445691887,85.70597591802033
3.09,-0.13359573399260727,-0.07688482473407292,85.39232184329748
3.1,-0.13647650453692226,-0.0786123077151709,85.07747968495825
3.11,-0.12200717975752201,-0.06760847776708105,84.77451836278276
3.12,-0.08720878102335354,-0.055468768598543224,84.38126268576282
3.13,-0.09414881915283962,-0.05371762146701924,83.91078157367853
3.14,-0.05993966893909922,-0.03518859168346151,83.43911237797788
3.15,-0.04019984350475906,-0.022457278754273686,83.01259035969944
3.16,-0.031524795842901444,-0.021297735383399703,82.65260102393799
3.17,-0.019346993087388114,0.01632826379393977,82.46250764531807
3.18,0.014894893155264962,0.042382493412965405,82.47320039786544
3.19,0.01604065416720842,0.04699700274603534,82.81061614491578
3.2,0.0844916906236019,0.08982911501709474,83.96662150364813
3.21,0.10013951244385828,0.12456808784246225,86.7396086642661
3.22,0.14305644634836898,0.16971928685526963,91.37551093535922
3.23,0.15638001011582575,0.18592922989707938,97.94204908306082
3.24,0.18656262877330773,0.2067773464223851,106.73149167699903
3.25,0.20106468958162066,0.21198345951610503,117.68799878720425
3.26,0.17088207092413868,0.19634145608451925,127.9589816507614
3.27,0.1424671978279409,0.14541620436776795,134.7168012606993
3.28,0.09549099633825911,0.08810163203599676,136.93970570693588
3.29,0.04386627874297813,0.03078705970422557,135.05302892413326
3.3,-0.00019641617347602148,-0.010293905435309855,130.30544679310094
3.31,-0.06340968800384227,-0.04041836892760743,124.2664177710696
3.32,-0.0860302839824974,-0.06760847776708105,117.49671732496796
3.33,-0.09355957063241156,-0.06876802113795503,110.48108357027681
3.34,-0.09008955156766851,-0.0780443681049469,105.55291272955557
3.35,-0.09706232572606728,-0.06299396843401112,102.57795135415394
3.36,-0.06399893652427033,-0.07051916826947902,100.90512962229872
3.37,-0.09126804860852464,-0.071655047489927,100.01881924448337
3.38,-0.08429527445012588,-0.06299396843401112,99.51388370752423
3.39,-0.08256026491775435,-0.06644893439620707,99.1432016192154
3.4,-0.06167467847147074,-0.06067488169226315,98.61569249354514
3.41,-0.05123188524832893,-0.05255807809614526,98.06560977916376
3.42,-0.035584063428072556,-0.04851150837329932,97.2458320838654
3.43,-0.05876117189824309,-0.062402364673361126,95.92111885160789
3.44,-0.06514469753621378,-0.06008327793161316,94.30532513333863
3.45,-0.088354542035297,-0.0641298476544591,92.62181064893602
3.46,-0.073263232706556,-0.06299396843401112,91.07254961318374
3.47,-0.09414881915283962,-0.07572528136319893,89.8369426521543
3.48,-0.052966894780700456,-0.06067488169226315,89.1074593117004
3.49,-0.07964675834452671,-0.06472145141510909,88.87221875565825
3.5,-0.051821133768757,-0.06876802113795503,88.87221875565825
3.51,-0.049496875715957414,-0.043873334889803384,89.00647220430857
3.52,-0.00134217718541948,-0.022457278754273686,89.17518007783373
3.53,0.034012734040264385,-0.021297735383399703,89.41042063387587
3.54,0.08622670015597343,-0.016683226050329767,89.62427568482327
3.55,0.08043242303843079,0.018055746775037747,89.84882348831805
3.56,0.06360610417731828,-0.022457278754273686,90.07337129181282
3.57,0.020689170272807596,-0.020138192012525716,90.29791909530759
3.58,-0.027465528257730337,-0.051398534725271276,90.44405338012164
3.59,-0.09414881915283962,-0.09134362064435872,90.49989331009125
3.6,-0.08894379055572506,-0.07281459086080098,90.42147979141053
3.61,-0.13647650453692226,-0.0925031640152327,90.18505115175202
3.62,-0.1289472178870081,-0.08033979069626887,89.87139707702916
3.63,-0.21942960180162865,-0.13360779330519412,89.52328857743144
3.64,-0.025730518725358812,0.0637985495484951,89.14191373657525
3.65,0.6412660703702975,0.7352924820366616,88.75935081210268
3.66,1.4276836929393748,1.005040132742632,88.41124231250497
3.67,0.551372934976105,0.3474370565545271,88.02986747164876
3.68,-0.15736209098320586,-0.09886882047982662,87.60334545337034
3.69,-0.2942314278670802,-0.14577116662415796,87.1768234350919
3.7,-0.1666591231944042,-0.10291539020267255,86.77287500552458
3.71,-0.1457735367481206,-0.08845659429238675,86.40219291721576
3.72,-0.12200717975752201,-0.10291539020267255,86.00893724019582
3.73,-0.1156236541195513,-0.09425431114675668,85.63944323550336
3.74,-0.0987973352584388,-0.07688482473407292,85.30202748845302
3.75,-0.11909367318429435,-0.0780443681049469,84.97649257756642
3.76,-0.10344585136403797,-0.07397413423167497,84.6283840779687
3.77,-0.1051808608964095,-0.06992756450882902,84.26958282582362
3.78,-0.05241038228918506,-0.058923734560739176,83.88820798496742
3.79,-0.05761541088629963,-0.04907944798352331,83.47237871923636
3.8,-0.04717261766315782,-0.04851150837329932,83.09100387838016
3.81,-0.0007856646939040859,-0.012612992177057823,82.7535881313298
3.82,0.017186415179151877,-0.00567939610223992,82.46250764531807
3.83,0.027629208402293687,0.014009177052191804,82.28310701924553
3.84,0.05257406243374842,0.029627516333351585,82.31637336050402
3.85,0.07287040035960396,0.06611763629024307,83.03516394841056
3.86,0.13899717876319787,0.09851385822343661,85.17846679235008
3.87,0.16626629084745218,0.13152534806770616,89.1858728303811
3.88,0.20973973724347827,0.16624065674264768,95.07995565121477
3.89,0.20800472771110673,0.18129105641358345,103.15060765724643
3.9,0.22483104657221925,0.18940786000970133,113.93840689392647
3.91,0.22191753999899158,0.18420174691598143,125.51152940103002
3.92,0.20744821521959134,0.15466888718433383,134.4138399385238
3.93,0.1419106853364255,0.10199248833605856,138.58995385008
3.94,0.10360953150860133,0.055113806342153224,138.25253810302965
3.95,0.027072695910778294,-0.007406879083337896,134.3580000085542
3.96,-0.004844932279075197,-0.030574082350391572,128.39738450520358
3.97,-0.05876117189824309,-0.06067488169226315,121.77381834391599
3.98,-0.05529115283350004,-0.0635619080442351,114.14038110871013
3.99,-0.06573394605664186,-0.07224665125057698,107.83165710576178
4.0,-0.056469649874356175,-0.06588099478598308,103.88009099770035
4.01,-0.07211747169461255,-0.07224665125057698,101.60134662149414
4.02,-0.03325980537527297,-0.06935962489860503,100.32178056665886
4.03,-0.03790832148087214,-0.07051916826947902,99.70397708614414
4.04,-0.02108200261975964,-0.058923734560739176,99.36774942271018
4.05,-0.03964333101324367,-0.062402364673361126,98.96380099314285
4.06,-0.014109228461360876,-0.05835579495051518,98.57054531612292
4.07,-0.030346298802045316,-0.05487716483789323,98.00976984919417
4.08,-0.03672982444001602,-0.058923734560739176,97.21256574260691
4.09,-0.03499481490764449,-0.05660464781899121,95.97814686519385
4.1,-0.01469847698178894,-0.055468768598543224,94.41700499327783
4.11,-0.04835111470401395,-0.06528939102533309,92.64319615403076
4.12,-0.038464833972387535,-0.07397413423167497,91.04997602447263
4.13,-0.04658336914272976,-0.06472145141510909,89.87139707702916
4.14,-0.02802204074924573,-0.059515338321389166,89.19775366654486
4.15,-0.029789786310529923,-0.04503287826067737,88.82707157823602
4.16,0.028807705443149815,-0.02361682212514767,88.75935081210268
4.17,0.03460198256069245,-0.013772535547931807,88.84964516694714
4.18,0.11405232473174313,-0.01145344880618384,89.02904579301968
4.19,0.11290656371979968,-0.00567939610223992,89.27616718522556
4.2,0.11696583130497079,-0.009158026214861871,89.54586216614257
4.21,0.047925546328149236,-0.016683226050329767,89.8143690634432
4.22,0.04563402430426232,-0.023048882514923676,90.0282241143906
4.23,-0.044848359610358234,-0.07051916826947902,90.15178481049354
4.24,-0.05761541088629963,-0.07688482473407292,90.21950557662687
4.25,-0.08256026491775435,-0.09714133749872864,90.23019832917424
4.26,-0.060528917459527286,-0.0780443681049469,90.1399039743298
4.27,-0.12023943419623781,-0.0919352244050087,89.92723700699877
4.28,-0.16027559755643353,-0.11739785026338435,89.58982125994842
4.29,0.16914706139176716,0.31153854035828565,89.30943352648404
4.3,1.278636553299987,0.9691416165463904,89.09676655915302
4.31,1.094791014926431,0.8805903656522996,88.84964516694714
4.32,0.2828392898054709,0.11183677491327443,88.51222941989678
4.33,-0.26002227765333974,-0.12492305009885225,88.075014649071
4.34,-0.14230351768337757,-0.10466653733419654,87.61522628953408
4.35,-0.09647307720563922,-0.08961613766326074,87.1542498463808
4.36,-0.09067880008809658,-0.10466653733419654,86.72772782810236
4.37,-0.07850099733258324,-0.08961613766326074,86.29051305727656
4.38,-0.05876117189824309,-0.09077568103413472,85.91983096896773
4.39,-0.06340968800384227,-0.0919352244050087,85.53845612811153
4.4,-0.04137834054561519,-0.0849779641797648,85.15589320363895
4.41,-0.04717261766315782,-0.07397413423167497,84.71867843281316
4.42,-0.02108200261975964,-0.058923734560739176,84.33730359195695
4.43,-0.02514127020493075,-0.05430922522766924,83.9773142561955
4.44,0.0015385933588955016,-0.047351965002425334,83.62920575659778
4.45,0.009067880008809658,-0.03230156533148955,83.28109725700007
4.46,0.04619053679577772,-0.015523682679455782,82.9448695935661
4.47,0.07113539082723244,0.0035969508647519495,82.73220262623508
4.48,0.11231731519937162,0.03658477655859549,82.73220262623508
4.49,0.11117155418742815,0.044677916004287374,83.31555168187494
4.5,0.1534992395715108,0.08173597557140286,85.19034762851382
4.51,0.19700542199644955,0.1147238012652464,88.8603379194945
4.52,0.24745164255087437,0.15410094757410983,94.7199663154533
4.53,0.27066148704995757,0.18881625624905135,103.27416835334938
4.54,0.2787800222202998,0.20213917293888917,114.71303741180262
4.55,0.2811042802730994,0.21894071974134893,126.67941559592612
4.56,0.2874550698821574,0.19404603349319727,135.60311163851463
4.57,0.2509216616156174,0.14366505723624398,139.6223985127094
4.58,0.18250336118813662,0.09158026214861871,139.34201077924504
4.59,0.11231731519937162,0.035425233187721505,135.6149924746784
4.6,0.08043242303843079,-0.01204505256683383,129.69952414874996
4.61,0.01836491222000801,-0.03634813505433549,123.19951868356533
4.62,0.005597860944066612,-0.05430922522766924,115.68964214446241
4.63,-0.03267055685484491,-0.071087107879703,109.49259800145326
4.64,-0.019346993087388114,-0.06528939102533309,105.58617907081405
4.65,-0.02108200261975964,-0.06760847776708105,103.25159476463826
4.66,-0.011784970408561288,-0.07456573799232495,102.0730158171948
4.67,-0.0071691903318747835,-0.05776419118986519,101.4777859253912
4.68,0.012570635102465375,-0.05660464781899121,101.08571833198764
4.69,0.009657128529237722,-0.05660464781899121,100.66988906625657
4.7,0.012570635102465375,-0.062402364673361126,100.22079345926703
4.71,0.022424179805179117,-0.04907944798352331,99.61487081491606
4.72,0.0311319634959494,-0.0496710517441733,98.95192015697911
4.73,0.01895416074043607,-0.05487716483789323,98.03234343790528
4.74,0.023013428325607183,-0.047351965002425334,96.84188365429809
4.75,0.024748437857978707,-0.044464938650453374,95.24747544112357
4.76,0.013716396114408834,-0.05023899135439729,93.56396095672096
4.77,0.0015385933588955016,-0.06067488169226315,92.04915434584353
4.78,0.01836491222000801,-0.056036708208767216,90.88126815094745
4.79,0.01604065416720842,-0.05487716483789323,90.11851846923506
4.8,0.04910404336900537,-0.04155424814805542,89.77040996963734
4.81,0.06881113277443286,-0.010293905435309855,89.60170209611216
4.82,0.09608024485868717,0.00011832075212999834,89.58982125994842
4.83,0.14826147494548353,0.006483977216723909,89.65754202608176
4.84,0.14420220736031242,0.014009177052191804,89.74783638092622
4.85,0.12973288258091217,0.013417573291541812,89.85951624086542
4.86,0.09899375143191483,-0.014364139308581799,90.0282241143906
4.87,0.04213126921060661,-0.034620652073237515,90.20762474046313
4.88,-0.00019641617347602148,-0.051398534725271276,90.3537590252772
4.89,-0.03672982444001602,-0.08265887743801684,90.4321725439579
4.9,-0.03614057591958795,-0.08381842080889082,90.45474613266902
4.91,-0.05123188524832893,-0.06935962489860503,90.36445177782456
4.92,-0.09067880008809658,-0.1272421368406002,90.23019832917424
4.93,-0.059350420418671154,-0.07397413423167497,89.98307693696836
4.94,0.4034715563486608,0.5373181995727485,89.65754202608176
4.95,1.6196805025121856,1.0912959610454007,89.28685993777293
4.96,0.9579216780425567,0.6837756265592604,88.8603379194945
4.97,0.05375255947460454,-0.00856642245421188,88.41124231250497
4.98,-0.22175385985442825,-0.13301618954454414,87.97402754167916
4.99,-0.09994309627038225,-0.09539019036720466,87.60334545337034
5.0,-0.04137834054561519,-0.08265887743801684,87.2326633650615
5.01,-0.048907627195529345,-0.08209093782779285,86.82871493549419
5.02,-0.027465528257730337,-0.09018407727348474,86.37961932850465
5.03,-0.04019984350475906,-0.08902453390261075,85.97567089893734
5.04,-0.03267055685484491,-0.08381842080889082,85.61686964679225
5.05,-0.029789786310529923,-0.07224665125057698,85.2794538997419
5.06,-0.015287725502217004,-0.059515338321389166,84.87550547017459
5.07,-0.010049960876189765,-0.05255807809614526,84.48224979315464
5.08,0.012570635102465375,-0.06008327793161316,84.10087495229844
5.09,0.019510673231951468,-0.0427137915189294,83.77534004141184
5.1,0.04910404336900537,-0.027663391847993612,83.46168596668899
5.11,0.058957588071719115,-0.01145344880618384,83.10169663092753
5.12,0.10013951244385828,0.01921529014591173,82.87714882743276
5.13,0.11172806667894354,0.03715271616881948,83.02328311224682
5.14,0.14364569486879702,0.06263900617762112,83.98919509235924
5.15,0.19409191542322188,0.11299631828414841,86.60416713199942
5.16,0.21903676945467662,0.1349803140299021,91.42065811278145
5.17,0.2544244167092731,0.16971928685526963,98.86281388575102
5.18,0.28922281544344164,0.19345442973254728,109.4486389076474
5.19,0.30372487625175454,0.21894071974134893,121.78451109646336
5.2,0.3222534686163259,0.22298728946419488,132.52835123933755
5.21,0.3008113696785269,0.19404603349319727,139.0497422096169
5.22,0.25730518725358814,0.13152534806770616,140.81167021270022
5.23,0.183059873679652,0.07073214562331301,138.65648653259697
5.24,0.11870084083734231,0.018647350535687737,133.7853437054617
5.25,0.06475186518926175,-0.02420842588579766,127.49919329122449
5.26,0.029953466455093274,-0.0496710517441733,120.5833585603088
5.27,0.022424179805179117,-0.047943568763075324,113.45604494567844
5.28,-0.00019641617347602148,-0.08381842080889082,108.32589989017355
5.29,-0.007725702823390178,-0.0780443681049469,105.20480422995786
5.3,0.0027170903997516304,-0.06992756450882902,103.47614256813303
5.31,0.004452099932123153,-0.06528939102533309,102.57795135415394
5.32,0.016629902687636484,-0.05660464781899121,101.9613359572556
5.33,0.015451405646780356,-0.06760847776708105,101.55619944407192
5.34,0.0311319634959494,-0.056036708208767216,101.12967742579349
5.35,0.027629208402293687,-0.06067488169226315,100.68058181880394
5.36,0.03574774357263591,-0.06644893439620707,100.0413928331945
5.37,0.029953466455093274,-0.05835579495051518,99.36774942271018
5.38,0.03286697302832093,-0.06935962489860503,98.35787834879189
5.39,0.035191231081120516,-0.05430922522766924,96.97732518656477
5.4,0.021278418793235658,-0.06528939102533309,95.32707704342066
5.41,-0.0071691903318747835,-0.07340619462145097,93.56396095672096
5.42,0.00039283234695204296,-0.07456573799232495,91.84718013105989
5.43,-0.002520674226275609,-0.07745276434429692,90.42147979141053
5.44,0.0375154891339201,-0.05835579495051518,89.71338195605136
5.45,0.06069259760409063,-0.044464938650453374,89.45556781129811
5.46,0.08737246116791689,-0.020138192012525716,89.43299422258698
5.47,0.11346307621131507,-0.00567939610223992,89.62427568482327
5.48,0.17958985461490898,0.008803063958471876,89.82624989960694
5.49,0.1656770423270241,0.02558094661050564,90.01753136184323
5.5,0.15290999105108272,0.004756494235625933,90.1066376330713
5.51,0.11117155418742815,-0.020138192012525716,90.15178481049354
5.52,0.06825462028291746,-0.043873334889803384,90.19693198791576
5.53,0.0027170903997516304,-0.071655047489927,90.29791909530759
5.54,-0.008314951343818242,-0.09366270738610669,90.37633261398831
5.55,-0.025730518725358812,-0.09482225075698067,90.44405338012164
5.56,-0.017611983555016593,-0.09366270738610669,90.42147979141053
5.57,-0.07791174881215518,-0.13940551015956404,90.26346467043274
5.58,0.03286697302832093,-0.03114202196061556,89.93792975954614
5.59,0.5559887150527915,0.6750908833529186,89.54586216614257
5.6,1.6405333529295567,1.1132799567911544,89.1300329004115
5.61,0.8024910127651984,0.5853564249375278,88.74865805955531
5.62,0.015451405646780356,-0.06124282130248714,88.35540238253536
5.63,-0.18754470964068784,-0.15502384944072384,87.97402754167916
5.64,-0.056469649874356175,-0.10755356368616849,87.63661179462882
5.65,-0.015287725502217004,-0.10407493357354654,87.27781054248373
5.66,0.0032736028912670246,-0.09366270738610669,86.89643570162754
5.67,0.006187109464494677,-0.09134362064435872,86.51506086077133
5.68,0.0032736028912670246,-0.0925031640152327,86.12180518375139
5.69,-0.0007856646939040859,-0.08786499053173677,85.70597591802033
5.7,0.015451405646780356,-0.08441002456954082,85.29133473590565
5.71,0.0079221189968662,-0.0786123077151709,84.8980790588857
5.72,0.0375154891339201,-0.06935962489860503,84.52739697057687
5.73,0.048514794848577306,-0.055468768598543224,84.14602212972068
5.74,0.07113539082723244,-0.03925882555673345,83.70880735889487
5.75,0.07984317451800273,-0.025935908866895636,83.30367084571118
5.76,0.11117155418742815,-0.018978648641651732,82.97813593482458
5.77,0.1355271596984548,0.005892373456073918,82.87714882743276
5.78,0.16335278427422453,0.04351837263341339,83.20268373831935
5.79,0.19468116394364995,0.06841305888156504,84.44898345189615
5.8,0.24977590060367397,0.12688717458421023,87.28969137864748
5.81,0.2544244167092731,0.141937574255146,92.21667413575234
5.82,0.2961628535729277,0.1847696865262054,100.21010070671966
5.83,0.319961946592439,0.20561780305151112,111.5693681628758
5.84,0.33155050082752424,0.21546208962872698,123.99672279015259
5.85,0.34081479700980993,0.21834911598069895,133.8744499766898
5.86,0.3326962618394677,0.20157123332866517,139.1626101531725
5.87,0.2723964965823291,0.12631923497398623,139.947933423596
5.88,0.21265324381670592,0.07709780208790692,137.24266702911137
5.89,0.1534992395715108,0.026172550371155633,132.079255632348
5.9,0.10766879909377244,-0.018410709031427743,125.84894514808036
5.91,0.054309071966119934,-0.051990138485921274,118.74301703854476
5.92,0.05663333001891952,-0.03925882555673345,111.85094397995655
5.93,0.027629208402293687,-0.06472145141510909,107.19246812015233
5.94,0.040985508198663145,-0.06183442506313713,104.45274730079284
5.95,0.021278418793235658,-0.06876802113795503,102.95932619501015
5.96,0.03286697302832093,-0.06183442506313713,102.18588376075037
5.97,0.05375255947460454,-0.0641298476544591,101.635801046369
5.98,0.04504477578383426,-0.06876802113795503,101.14155826195723
5.99,0.04386627874297813,-0.06067488169226315,100.7150362436788
6.0,0.05024980438094883,-0.0571962515796412,100.21010070671966
6.01,0.05316331095417648,-0.04619242163155135,99.56972363749382
6.02,0.054898320486548004,-0.05487716483789323,98.40183744259774
6.03,0.0612818461245187,-0.058923734560739176,96.67317578077291
6.04,0.054309071966119934,-0.06008327793161316,94.94451411894808
6.05,0.023569940817122575,-0.0571962515796412,93.30614681196771
6.06,0.03345622154874899,-0.06067488169226315,91.89113922486574
6.07,0.010246377049665786,-0.0780443681049469,90.80285463226673
6.08,0.04969329188943343,-0.05314968185679526,90.05079770310171
6.09,0.06534111370968981,-0.028822935218867595,89.66942286224551
6.1,0.1018745219762298,-0.010293905435309855,89.48883415255659
6.11,0.12449511795488494,0.0035969508647519495,89.45556781129811
6.12,0.18482761924093621,-0.012612992177057823,89.5114077412677
6.13,0.1877083897852512,0.026740489981379626,89.56843575485368
6.14,0.18597338025287966,0.01980689390656172,89.64684927353439
6.15,0.13261365312522716,-0.0004732830085199934,89.75852913347359
6.16,0.07925392599757466,-0.03634813505433549,89.90466341828765
6.17,0.010246377049665786,-0.071087107879703,90.07337129181282
6.18,0.014305644634836898,-0.06008327793161316,90.23019832917424
6.19,-0.0158442379937324,-0.08441002456954082,90.33118543656607
6.2,-0.0065799418114467195,-0.08961613766326074,90.3204926840187
6.21,-0.06108542995104268,-0.1208764803760063,90.20762474046313
6.22,0.008511367517294264,-0.04214585190870541,89.96050334825725
6.23,0.430151419912487,0.6038854547210856,89.63496843737065
6.24,1.5680557849169048,1.1092333870683084,89.26428634906182
6.25,0.863380026542765,0.6316671673212091,88.87221875565825
6.26,0.06475186518926175,-0.0641298476544591,88.45638948992719
6.27,-0.21304607616365795,-0.14865819297612992,88.10828099032948
6.28,-0.07791174881215518,-0.10350699396332255,87.76017249073176
6.29,-0.038464833972387535,-0.10177951098222457,87.3681048973282
6.3,-0.03384905389570103,-0.0849779641797648,86.97484922030824
6.31,-0.03267055685484491,-0.07513367760254895,86.5815935432883
6.32,-0.030935547322473382,-0.08093139445691887,86.2002187024321
6.33,-0.02687627973730227,-0.08441002456954082,85.79627027286479
6.34,-0.0019314257058475445,-0.06183442506313713,85.35786741842261
6.35,0.023569940817122575,-0.07397413423167497,84.90877181143307
6.36,0.0375154891339201,-0.043873334889803384,84.47155704060728
6.37,0.011392138061609245,-0.04907944798352331,84.12344854100955
6.38,0.0311319634959494,-0.025935908866895636,83.78722087757559
6.39,0.03286697302832093,-0.025935908866895636,83.39396520055564
6.4,0.091431728753088,-0.003360309360491953,82.96744318227721
6.41,0.11172806667894354,0.02210231649788369,82.63002743522686
6.42,0.14943997198633968,0.0568412893232512,82.59676109396838
6.43,0.15929351668905342,0.08230391518162684,83.06843028966904
6.44,0.2062697181787352,0.11010929193217646,84.67353125539093
6.45,0.2109182342843344,0.15350934381345985,88.02986747164876
6.46,0.27121799954147296,0.1789956338222615,93.54138736800985
6.47,0.2741315061147006,0.20097962956801518,101.79262808373043
6.48,0.304870637263698,0.214302546257853,113.02952292740001
6.49,0.30195713069047037,0.21487048586807697,124.99590111152351
6.5,0.26195370335918733,0.16740020011352166,134.13345220505943
6.51,0.21844752093424855,0.12861465756530818,138.46639315397707
6.52,0.1511749815187112,0.07016420601308901,138.2976852804519
6.53,0.10305301901708593,0.010530546939569852,134.64908049456594
6.54,0.04272051773103467,-0.019570252402301726,128.92489363087384
6.55,0.019510673231951468,-0.06472145141510909,122.40231457697807
6.56,0.007332870476438135,-0.056036708208767216,114.61205030441079
6.57,-0.0054014447705905905,-0.062402364673361126,108.03363132054544
6.58,-0.023406260672559225,-0.08786499053173677,103.97038535254481
6.59,-0.008314951343818242,-0.05776419118986519,101.62392021020526
6.6,0.015451405646780356,-0.06760847776708105,100.46791485147291
6.61,0.014894893155264962,-0.056036708208767216,99.83941861841083
6.62,0.0079221189968662,-0.05660464781899121,99.45804377755464
6.63,0.002127841879323566,-0.0635619080442351,99.06478810053468
6.64,0.022424179805179117,-0.05835579495051518,98.61569249354514
6.65,0.027629208402293687,-0.05776419118986519,97.94204908306082
6.66,0.02533768637840677,-0.06124282130248714,97.04385786908173
6.67,0.016629902687636484,-0.051398534725271276,95.7761726504102
6.68,0.006776357984922741,-0.056036708208767216,94.22691161465791
6.69,-0.016433486514160465,-0.06704053815685707,92.60992981277228
6.7,-0.00019641617347602148,-0.05371762146701924,91.20680306183405
6.71,0.004452099932123153,-0.038099282185859465,90.20762474046313
6.72,0.020689170272807596,-0.03925882555673345,90.1066376330713
6.73,0.058368339551291046,-0.023048882514923676,90.24089108172161
6.74,0.091431728753088,-0.02072979577317571,90.34306627272983
6.75,0.13434866265759868,0.002437407493877966,90.53315965134973
6.76,0.11578733426411465,-0.002200765989617969,90.71256027742228
6.77,0.11578733426411465,-0.010293905435309855,90.87057539840008
6.78,0.05083905290137689,-0.00856642245421188,91.03809518830887
6.79,0.0032736028912670246,-0.059515338321389166,91.28521658051477
6.8,-0.04137834054561519,-0.08033979069626887,91.52164522017328
6.81,-0.06399893652427033,-0.0994604242404766,91.74619302366806
6.82,-0.06458818504469839,-0.08325048119866683,91.82460654234876
6.83,-0.06108542995104268,-0.08786499053173677,91.77945936492654
6.84,-0.1393900111101499,-0.13360779330519412,91.61075149140136
6.85,-0.009460712355761701,-0.002768705599841961,91.38620368790659
6.86,0.5681665178083047,0.6640870534048287,91.12838954315333
6.87,1.5257280995328222,1.002721046000884,90.84800180968897
6.88,0.6853287652867516,0.425008141650954,90.52246689880236
6.89,-0.07905750982409865,-0.09539019036720466,90.21950557662687
6.9,-0.2646707937589389,-0.1631169888864157,89.8369426521543
6.91,-0.14230351768337757,-0.09366270738610669,89.38784704516476
6.92,-0.10167810580275378,-0.09654973373807864,88.9957794517612
6.93,-0.07850099733258324,-0.09830088086960262,88.62509736345237
6.94,-0.08720878102335354,-0.09714133749872864,88.23184168643242
6.95,-0.07038246216224103,-0.09134362064435872,87.80531966815398
6.96,-0.04370259859841478,-0.08613750755063879,87.41206399113405
6.97,-0.048907627195529345,-0.0919352244050087,87.13167625766967
6.98,-0.060528917459527286,-0.08093139445691887,86.88455486546378
6.99,-0.029789786310529923,-0.06820008152773105,86.59347437945205
7.0,-0.01990350557890351,-0.062402364673361126,86.23348504369059
7.01,-0.0007856646939040859,-0.03925882555673345,85.82953661412327
7.02,0.020689170272807596,-0.043873334889803384,85.41489543200859
7.03,0.055487569006976066,-0.00856642245421188,85.06678693241088
7.04,0.08390244210317384,0.021534376887659697,84.85293188146348
7.05,0.11523082177259926,0.03947180291056745,84.96579982501905
7.06,0.13320290164565524,0.06957260225243903,85.84141745028701
7.07,0.16508779380659605,0.09735431485256263,88.13085457904059
7.08,0.20162120207313605,0.1349803140299021,92.40795559798862
7.09,0.24047886839247562,0.15582843055520781,99.21092238534874
7.1,0.2729857451027572,0.18245059978445743,109.30250462283335
7.11,0.29442784404055616,0.20097962956801518,121.9080717925663
7.12,0.28977932793495703,0.18129105641358345,133.437235205864
7.13,0.24339237496570326,0.13789100453230008,140.68929760021368
7.14,0.1993296800492491,0.08405506231315082,142.92289479899765
7.15,0.13261365312522716,0.03485729357749751,141.12651237103947
7.16,0.07113539082723244,-0.007998482843987888,136.33378306258493
7.17,0.02415918933755064,-0.04330539527957939,129.94545745733947
7.18,-0.0007856646939040859,-0.06183442506313713,123.03081081004017
7.19,-0.004255683758647132,-0.07224665125057698,115.54350785964836
7.2,-0.010639209396617829,-0.071655047489927,110.03198796328726
7.21,-0.0216712511401877,-0.08325048119866683,106.59723822834871
7.22,-0.014109228461360876,-0.06935962489860503,104.7331350342572
7.23,0.0009493448384674372,-0.07629322097342293,103.90266458641146
7.24,-0.008904199864246306,-0.08209093782779285,103.3751554607412
7.25,0.010246377049665786,-0.06008327793161316,103.16248849341018
7.26,0.00039283234695204296,-0.071655047489927,102.84764633507095
7.27,0.014894893155264962,-0.06528939102533309,102.43181706933989
7.28,-0.0031099227467036735,-0.07572528136319893,101.77005449501932
7.29,0.014894893155264962,-0.0571962515796412,100.91701045846246
7.3,0.0032736028912670246,-0.0641298476544591,99.69328433359678
7.31,0.010246377049665786,-0.0571962515796412,98.14402329784448
7.32,-0.0019314257058475445,-0.06588099478598308,96.40466888347228
7.33,0.005597860944066612,-0.05835579495051518,94.88867418897848
7.34,0.03460198256069245,-0.04330539527957939,93.76593517150462
7.35,0.07519465841240355,-0.028254995608643602,93.12674618589517
7.36,0.08157818405037426,0.0006862603623539904,92.87962479368927
7.37,0.1471157139335401,-0.007998482843987888,92.84635845243079
7.38,0.1082580476142005,-0.020138192012525716,92.9021983824004
7.39,0.13320290164565524,0.002437407493877966,93.05902541976182
7.4,0.07637315545325968,-0.02420842588579766,93.14931977460628
7.41,0.051428301421804955,-0.04562448202132736,93.30614681196771
7.42,-0.018168496046531986,-0.06876802113795503,93.48554743804026
7.43,-0.03790832148087214,-0.0849779641797648,93.67682890027653
7.44,-0.052966894780700456,-0.07745276434429692,93.88949586760756
7.45,-0.0582046594067277,-0.08613750755063879,93.97979022245202
7.46,-0.10285660284360991,-0.10930471081769247,93.9346430450298
7.47,-0.12835796936658003,-0.14749864960525594,93.81108234892685
7.48,0.2259768075841627,0.37465082954442674,93.50812102675137
7.49,1.381885988490549,1.0172035060615958,93.0697181723092
7.5,1.010102908129353,0.8348475628788423,92.72279775632785
7.51,0.18888688682610733,0.07364283612571097,92.49824995283308
7.52,-0.2565522585885967,-0.14170093275088602,92.31766124314416
7.53,-0.14403852721574908,-0.10118790722157459,92.03727350967979
7.54,-0.09532731619369575,-0.10814516744681849,91.62263232756511
7.55,-0.06399893652427033,-0.09018407727348474,91.1390822957007
7.56,-0.07211747169461255,-0.09366270738610669,90.63414675874157
7.57,-0.05414539182155659,-0.08961613766326074,90.16247756304091
7.58,-0.049496875715957414,-0.08845659429238675,89.73595554476248
7.59,-0.031524795842901444,-0.08845659429238675,89.28685993777293
7.6,-0.04370259859841478,-0.08033979069626887,88.88291150820562
7.61,-0.04019984350475906,-0.06299396843401112,88.55737659731902
7.62,-0.024552021684502684,-0.05835579495051518,88.1866945090102
7.63,-0.002520674226275609,-0.058923734560739176,87.65918538333993
7.64,0.0316884759874648,-0.027663391847993612,87.2326633650615
7.65,0.03980701115780702,-0.021297735383399703,86.97484922030824
7.66,0.06419535269774636,0.0041648904749759415,86.8512885242053
7.67,0.09666949337911523,0.02501300700028165,87.0651435751527
7.68,0.13320290164565524,0.05220311583975527,87.97402754167916
7.69,0.17147131944456676,0.09042071877774473,90.38702536653568
7.7,0.1958269249555934,0.1355719177905521,95.0229276376288
7.71,0.23992235590096023,0.16103454364892775,102.81437999381247
7.72,0.25615942624164467,0.18361014315533142,114.45522326704936
7.73,0.2851635478582705,0.20502619929086113,127.91383447333916
7.74,0.27180724806190104,0.21198345951610503,138.84776799483328
7.75,0.26486720993241497,0.1714704339867936,144.9426369468342
7.76,0.20568046965830716,0.12052151811961631,146.4360580526169
7.77,0.14073218829556938,0.06611763629024307,144.1573136764107
7.78,0.07578390693283162,0.010530546939569852,139.0271686209058
7.79,0.02939695396357788,-0.0357801954441115,132.59488392185452
7.8,-0.019346993087388114,-0.06067488169226315,125.69093002710257
7.81,-0.023962773164074618,-0.06067488169226315,118.52916198759736
7.82,-0.049496875715957414,-0.06760847776708105,113.37763142699772
7.83,-0.0454376081307863,-0.07051916826947902,110.3468301216265
7.84,-0.059350420418671154,-0.07629322097342293,108.65143480106015
7.85,-0.05588040135392811,-0.07629322097342293,107.70809640965884
7.86,-0.059350420418671154,-0.07397413423167497,107.1698945314412
7.87,-0.04425911108993017,-0.08381842080889082,106.86693320926572
7.88,-0.030346298802045316,-0.06008327793161316,106.56278380347386
7.89,-0.024552021684502684,-0.08381842080889082,106.249129728751
7.9,-0.039054082492815605,-0.07224665125057698,105.75488694433923
7.91,-0.02108200261975964,-0.058923734560739176,105.07055078130755
7.92,-0.030935547322473382,-0.056036708208767216,103.92523817512257
7.93,-0.02514127020493075,-0.06183442506313713,102.3985507280814
7.94,-0.04078909202518713,-0.07456573799232495,100.5011811927314
7.95,-0.029789786310529923,-0.06299396843401112,98.50282454998957
7.96,-0.04776186618358589,-0.07051916826947902,96.79673647687585
7.97,-0.008904199864246306,-0.04907944798352331,95.6181575294324
7.98,0.01604065416720842,-0.028822935218867595,94.9112477776896
7.99,0.04386627874297813,-0.012612992177057823,94.59640561935036
8.0,0.06301685565689022,-0.020138192012525716,94.50729934812229
8.01,0.11984660184928576,0.001845803733227974,94.585712866803
8.02,0.1018745219762298,0.017487807164813754,94.7199663154533
8.03,0.07460540989197549,-0.0010412226187439854,94.86610060026737
8.04,0.029953466455093274,-0.018978648641651732,95.06807481505102
8.05,-0.01351997994093281,-0.06183442506313713,95.2367826885762
8.06,-0.073263232706556,-0.08381842080889082,95.40549056210136
8.07,-0.07499824223892754,-0.08845659429238675,95.60746477688502
8.08,-0.08661953250292546,-0.0925031640152327,95.70845188427685
8.09,-0.0860302839824974,-0.09425431114675668,95.6407311181435
8.1,-0.1457735367481206,-0.142292536511536,95.41618331464873
8.11,-0.02514127020493075,-0.012612992177057823,95.11322199247326
8.12,0.5501944379352488,0.7439772252430036,94.7995679177504
8.13,1.5494944565234208,1.133560133706236,94.46215217070005
8.14,0.6418225828618128,0.5321120864790285,94.13661725981345
8.15,-0.12023943419623781,-0.05776419118986519,93.81108234892685
8.16,-0.2420501977802838,-0.13940551015956404,93.45228109678176
8.17,-0.1225636922490374,-0.10523447694442052,93.02575907850334
8.18,-0.09647307720563922,-0.09018407727348474,92.56478263535006
8.19,-0.09532731619369575,-0.08670544716086279,92.10499427581314
8.2,-0.10459161237598144,-0.10234745059244857,91.58817790269025
8.21,-0.08950030304724045,-0.08961613766326074,91.08324236573111
8.22,-0.09532731619369575,-0.09714133749872864,90.67929393616379
8.23,-0.07850099733258324,-0.0780443681049469,90.33118543656607
8.24,-0.08370602592969782,-0.07918024732539489,89.93792975954614
8.25,-0.06514469753621378,-0.06876802113795503,89.44487505875074
8.26,-0.048907627195529345,-0.06183442506313713,88.96132502688633
8.27,-0.02628703121687421,-0.047943568763075324,88.50153666734941
8.28,-0.01875774456696005,-0.03346110870236353,88.16530900391545
8.29,0.011392138061609245,-0.020138192012525716,87.90630677554581
8.3,0.029953466455093274,0.011690090310443836,87.82789325686511
8.31,0.07231388786808857,0.048156546116909324,88.28768161640201
8.32,0.10766879909377244,0.07016420601308901,89.91535617083503
8.33,0.1471157139335401,0.10083294496518458,93.44040026061802
8.34,0.17611983555016592,0.15294140420323585,99.59229722620495
8.35,0.2254202950926473,0.17667654708051353,109.68387946368955
8.36,0.2294795626778184,0.21603002923895098,123.31119854350453
8.37,0.24804089107130245,0.21894071974134893,136.2327959551931
8.38,0.24804089107130245,0.212551399126329,144.62898287211135
8.39,0.2254202950926473,0.17319791696789158,148.05303985450252
8.4,0.15176423003913925,0.11010929193217646,147.36751560785447
8.41,0.0850482031151173,0.04642906313581135,143.36010956982344
8.42,0.010246377049665786,-0.003928248970715945,137.41137490263654
8.43,-0.01990350557890351,-0.04503287826067737,130.8329559187712
8.44,-0.05876117189824309,-0.056036708208767216,123.30050579095716
8.45,-0.07617673927978366,-0.07340619462145097,116.86822109190587
8.46,-0.088354542035297,-0.07224665125057698,112.91665498384444
8.47,-0.07964675834452671,-0.07572528136319893,110.57137792512127
8.48,-0.08197101639732629,-0.08265887743801684,109.33577096409184
8.49,-0.07905750982409865,-0.0641298476544591,108.68470114231863
8.5,-0.08314951343818243,-0.08149933406714285,108.30332630146243
8.51,-0.04658336914272976,-0.06588099478598308,108.02293856799807
8.52,-0.05993966893909922,-0.06644893439620707,107.77581717579218
8.53,-0.044848359610358234,-0.07051916826947902,107.33741432135001
8.54,-0.05588040135392811,-0.06644893439620707,106.73149167699903
8.55,-0.04137834054561519,-0.06124282130248714,105.74419419179186
8.56,-0.05241038228918506,-0.06704053815685707,104.47532088950395
8.57,-0.03731907296044408,-0.06124282130248714,102.80249915764871
8.58,-0.0622639269918988,-0.06876802113795503,100.81602335107063
8.59,-0.07444172974741214,-0.07397413423167497,98.88538747446215
8.6,-0.07617673927978366,-0.08149933406714285,97.38127361613209
8.61,-0.05876117189824309,-0.071087107879703,96.33694811733893
8.62,-0.08370602592969782,-0.06820008152773105,96.03398679516346
8.63,-0.041967589066043254,-0.051990138485921274,96.21338742123599
8.64,-0.03440556638721643,-0.04041836892760743,96.29180093991671
8.65,0.021834931284751054,-0.007406879083337896,96.33694811733893
8.66,0.026483447390350228,-0.018410709031427743,96.32625536479156
8.67,0.07054614230680438,-0.003360309360491953,96.29180093991671
8.68,0.05663333001891952,0.00996260732934586,96.29180093991671
8.69,0.055487569006976066,-0.0004732830085199934,96.32625536479156
8.7,-0.012963467449417418,-0.015523682679455782,96.37021445859743
8.71,-0.043113350077986716,-0.04619242163155135,96.43793522473077
8.72,-0.1161801666110667,-0.08441002456954082,96.4272424721834
8.73,-0.10400236385555336,-0.09018407727348474,96.28110818736934
8.74,-0.13127147593980767,-0.09018407727348474,96.02210595899972
8.75,-0.12606644734269312,-0.09366270738610669,95.70845188427685
8.76,-0.2060733020052592,-0.16198110966596774,95.3151962072569
8.77,-0.07093897465375643,0.007643520587597893,94.83283425900888
8.78,0.5310438610213367,0.8087933332598166,94.38373865201933
8.79,1.417830148236661,1.1879640155356093,94.00236381116314
8.8,0.5531079445084764,0.5205166527702887,93.63168172285431
8.81,-0.14053577212209337,-0.05371762146701924,93.19327886841214
8.82,-0.29135065732276516,-0.14517956286350797,92.66576974274187
8.83,-0.1666591231944042,-0.10177951098222457,92.13826061707162
8.84,-0.14750854628049212,-0.10118790722157459,91.71173859879319
8.85,-0.11212089902589559,-0.08845659429238675,91.34105651048436
8.86,-0.13241723695175114,-0.09770927710895264,90.97156250579191
8.87,-0.12780145687506464,-0.09134362064435872,90.60088041748308
8.88,-0.12780145687506464,-0.08961613766326074,90.16247756304091
8.89,-0.1057373733879249,-0.07224665125057698,89.702689203504
8.9,-0.10226735432318185,-0.071087107879703,89.23102000780334
8.91,-0.08488452297055395,-0.06124282130248714,88.8044979895249
8.92,-0.08544103546206934,-0.047351965002425334,88.35540238253536
8.93,-0.059350420418671154,-0.0357801954441115,87.92888036425693
8.94,-0.048907627195529345,-0.02998247858974158,87.54750552340073
8.95,-0.016433486514160465,-0.010293905435309855,87.32295771990596
8.96,-0.0019314257058475445,0.01921529014591173,87.28969137864748
8.97,0.035191231081120516,0.044677916004287374,87.60334545337034
8.98,0.06534111370968981,0.08810163203599676,88.82707157823602
8.99,0.12390586943445688,0.11588334463612038,91.7343121875043
9.0,0.13320290164565524,0.15526049094498381,96.88703083172031
9.01,0.195270412464078,0.20329871630976315,105.29509858480232
9.02,0.18829763830567925,0.22414683283506887,117.66542519849312
9.03,0.2085939762315348,0.23108042890988675,131.28205152576075
9.04,0.20279969911399218,0.23051248929966275,141.65402149670973
9.05,0.20047544106119258,0.18708877326795337,146.87446090705907
9.06,0.10711228660225704,0.12224900110071428,147.4126627852767
9.07,0.05607681752740413,0.06552603252959308,144.40443506861658
9.08,-0.00134217718541948,0.011690090310443836,138.76935447615256
9.09,-0.03672982444001602,-0.02650384847711963,131.96638768879242
9.1,-0.09820808673801074,-0.05255807809614526,124.43393756097839
9.11,-0.09473806767326769,-0.06760847776708105,117.33989028760654
9.12,-0.10112159331123839,-0.06124282130248714,112.65884083909118
9.13,-0.09588382868521114,-0.07051916826947902,109.98684078586504
9.14,-0.11097513801395213,-0.07397413423167497,108.58371403492681
9.15,-0.0860302839824974,-0.0635619080442351,107.7983907645033
9.16,-0.08082525538538284,-0.06935962489860503,107.31484073263888
9.17,-0.05702616236587157,-0.06528939102533309,106.93346589178269
9.18,-0.07499824223892754,-0.06588099478598308,106.60793098089609
9.19,-0.06805820410944144,-0.06067488169226315,106.23724889258726
9.2,-0.07905750982409865,-0.05255807809614526,105.68716617820589
9.21,-0.06340968800384227,-0.05083059511504728,104.74501587042094
9.22,-0.0686474526298695,-0.05835579495051518,103.29674194206049
9.23,-0.07038246216224103,-0.06528939102533309,101.32095888802978
9.24,-0.08370602592969782,-0.0641298476544591,99.26676231531835
9.25,-0.08023600686495477,-0.06183442506313713,97.42523270993794
9.26,-0.09706232572606728,-0.056036708208767216,95.93299968777163
9.27,-0.07617673927978366,-0.06704053815685707,94.87798143643111
9.28,-0.10400236385555336,-0.06992756450882902,94.38373865201933
9.29,-0.06687970706858531,-0.05314968185679526,94.32789872204974
9.3,-0.06979321364181296,-0.0427137915189294,94.42888582944157
9.31,-0.04658336914272976,-0.03866722179608346,94.63086004422523
9.32,-0.02108200261975964,-0.01145344880618384,94.93382136640071
9.33,0.06360610417731828,-0.009158026214861871,95.25935627728731
9.34,0.04330976625146273,-0.01784276942120375,95.59558394072128
9.35,0.058957588071719115,0.002437407493877966,95.82013174421606
9.36,0.005008612423638548,-0.015523682679455782,95.96626602903011
9.37,-0.022227763631703097,-0.037507678425209474,96.04467954771083
9.38,-0.10979664097309601,-0.06760847776708105,96.01141320645235
9.39,-0.12429870178140892,-0.07629322097342293,95.96626602903011
9.4,-0.14286003017489296,-0.0925031640152327,95.76429181424645
9.41,-0.12547719882226505,-0.0780443681049469,95.4506377395236
9.42,-0.19795476683491697,-0.09425431114675668,95.0229276376288
9.43,-0.22463463039874323,-0.09598179412785465,94.5298729368334
9.44,0.05257406243374842,0.2988072274290978,94.0130565637105
9.45,1.0826132121709178,0.997514932907164,93.46297384932913
9.46,0.8952976547326186,0.8759521921688037,93.02575907850334
9.47,0.21962601797510467,0.09042071877774473,92.66576974274187
9.48,-0.35456392915313145,-0.13012916319257217,92.30696849059679
9.49,-0.26755156430325394,-0.12203602374688029,91.95885999099907
9.5,-0.19448474777017394,-0.11219173716966442,91.55491156143177
9.51,-0.16027559755643353,-0.0919352244050087,91.1390822957007
9.52,-0.16433486514160464,-0.10582608070507052,90.70186752487491
9.53,-0.1521570623860913,-0.09598179412785465,90.27534550659648
9.54,-0.1590971005155774,-0.08845659429238675,89.92723700699877
9.55,-0.12606644734269312,-0.071655047489927,89.702689203504
9.56,-0.13591999204540686,-0.0780443681049469,89.47814140000922
9.57,-0.1051808608964095,-0.06008327793161316,89.29874077393667
9.58,-0.10112159331123839,-0.05835579495051518,89.09676655915302
9.59,-0.06514469753621378,-0.037507678425209474,88.88291150820562
9.6,-0.10632662190835296,-0.0571962515796412,88.53480300860791
9.61,-0.04078909202518713,-0.03114202196061556,88.06313381290724
9.62,-0.04137834054561519,0.006483977216723909,87.60334545337034
9.63,-0.0071691903318747835,0.02269392025853368,87.35622406116444
9.64,0.03286697302832093,0.058568772304349176,87.4797847572674
9.65,0.07113539082723244,0.08926117540687074,88.42312314866871
9.66,0.09493448384674372,0.11879403513851833,91.11650870698959
9.67,0.14826147494548353,0.14714368734886593,95.93299968777163
9.68,0.1471157139335401,0.18420174691598143,103.16248849341018
9.69,0.1877083897852512,0.19404603349319727,114.0952339312879
9.7,0.19003264783805077,0.21778117637047495,127.50988604377186
9.71,0.195270412464078,0.19634145608451925,139.0830085508754
9.72,0.125084366475313,0.13325283104880414,145.60558760477116
9.73,0.08622670015597343,0.06611763629024307,146.88515365960643
9.74,0.004452099932123153,0.018647350535687737,144.1240473351522
9.75,-0.03267055685484491,-0.018410709031427743,138.47708590652442
9.76,-0.09300305814089617,-0.04619242163155135,131.60758643664735
9.77,-0.08776529351486893,-0.06124282130248714,123.77217498665782
9.78,-0.1115643865343802,-0.06644893439620707,116.03775064406013
9.79,-0.11676941513149476,-0.07918024732539489,110.52623074769905
9.8,-0.143449278695321,-0.08441002456954082,107.18058728398857
9.81,-0.10691587042878102,-0.08265887743801684,105.46261837471111
9.82,-0.10979664097309601,-0.071087107879703,104.67729510428761
9.83,-0.09647307720563922,-0.08441002456954082,104.3291866046899
9.84,-0.08314951343818243,-0.07456573799232495,104.01553252996703
9.85,-0.0987973352584388,-0.07340619462145097,103.55455608681375
9.86,-0.09588382868521114,-0.05835579495051518,103.06150138601835
9.87,-0.04776186618358589,-0.058923734560739176,102.454390658051
9.88,-0.08138176787689823,-0.056036708208767216,101.55619944407192
9.89,-0.07791174881215518,-0.05776419118986519,100.21010070671966
9.9,-0.0987973352584388,-0.06704053815685707,98.40183744259774
9.91,-0.060528917459527286,-0.06008327793161316,96.5947622620922
9.92,-0.09647307720563922,-0.06876802113795503,96.02210595899972
9.93,-0.07211747169461255,-0.06588099478598308,95.74171822553534
9.94,-0.10400236385555336,-0.07977185108604488,95.41618331464873
9.95,-0.06514469753621378,-0.06183442506313713,95.32707704342066
9.96,-0.060528917459527286,-0.05083059511504728,95.3151962072569
9.97,-0.01351997994093281,-0.034620652073237515,95.33776979596803
9.98,0.013127147593980768,-0.01204505256683383,95.38291697339025
9.99,0.06475186518926175,-0.010293905435309855,95.5623175994628
