time_s,ECG1,ECG2,NIBP
0.0,-0.5906014515171017,-0.08890993499263754,85.75925854141254
0.01,-0.4404462137853543,0.011195822685557386,86.54586742066263
0.02,-0.5848368080210018,-0.07791110625462662,87.97249332270316
0.03,-0.4183941648558289,0.019879972539897352,87.47755690012025
0.04,-0.5593076725382732,-0.08428057722529562,87.35438951556908
0.05,-0.3969368807314567,0.022194651423568308,85.24316453129937
0.06,-0.540732710161951,-0.0686523907199428,84.20946525482086
0.07,-0.3221795198375886,0.06154419244597454,83.53544496635679
0.08,-0.4433285355334043,-0.03278307610419076,83.55811381013922
0.09,-0.2572129026593188,0.09048588657300925,83.69261561658159
0.1,-0.37200251005388135,-0.014840210715166974,83.80520420736764
0.11,-0.21951396424037914,0.09396611297966345,84.42330801450171
0.12,-0.40915243480652574,-0.010785418628168918,84.74898373684253
0.13,-0.2584024322696251,0.08237630239901314,84.19813083292964
0.14,-0.4711909790978876,-0.04493103620288939,84.10821108592603
0.15,-0.30534310073786797,0.005991899237871621,84.54647539905288
0.16,-0.48390979570039394,-0.08485514290563947,85.36633191585054
0.17,-0.32332329830903694,0.0077320124411987224,85.49025492852778
0.18,-0.47466806565109076,-0.08659525610896658,84.62506072416528
0.19,-0.2949118410782584,0.014676049092211587,83.2437725096896
0.2,-0.46423680599148126,-0.0947048402829627,82.08690584865992
0.21,-0.2647618405708783,0.00021341010984200296,81.77256454821033
0.22,-0.34537534723856234,-0.03335764178453462,82.05290258298629
0.23,0.27331730353731243,0.3665236555724923,82.10957469244235
0.24,0.7452860519957849,0.5198834437374147,82.10957469244235
0.25,0.07677041100361738,0.2901392524113508,82.04156816109509
0.26,-0.5442097967151542,-0.02004413416285274,81.40155113830465
0.27,-0.21603687768717597,0.12405693846738587,80.16609915216257
0.28,-0.34011396626989965,-0.04898582828988745,78.84072741901689
0.29,-0.18474309870834743,0.049970798027619764,78.43646637156365
0.3,-0.3552118420930187,-0.06981793824292604,78.34654662456005
0.31,-0.15692640628272206,0.05460015579496168,77.9196167333244
0.32,-0.32680038486224017,-0.059393675185258975,77.93095115521561
0.33,-0.13254104927144192,0.05922951356230359,78.33521220266884
0.34,-0.29665038435486,-0.04550560188323324,78.88606510658173
0.35,-0.1087962082041729,0.07891249215465447,78.68355676879207
0.36,-0.2745983354253346,-0.02178424736617984,77.3808538794288
0.37,-0.06414309667882692,0.10957788332272074,75.56130135182627
0.38,-0.234017075258345,0.012361370208540633,74.258598462463
0.39,-0.015418133795124586,0.15703700851912308,74.19134755924182
0.4,-0.17083475249553476,0.06791366341664355,74.92128432903586
0.41,0.06922147309205787,0.21721865949456792,75.95422797738829
0.42,-0.07864620769679277,0.14083425633342642,76.81942218175078
0.43,0.16255379636224823,0.2831952157603379,77.01059609764923
0.44,0.01701942365515236,0.1859787026461578,77.1450979040916
0.45,0.23506935145207752,0.2901392524113508,77.12242906030917
0.46,0.021091275013508708,0.1362048985660845,77.29093413242519
0.47,0.15793293133759667,0.20970005716321122,80.55902577772459
0.48,-0.10705766492757132,0.03319348016157923,87.24180092478304
0.49,0.03618915083662774,0.1118925622063917,93.90266285618516
0.5,-0.20157951780806804,-0.04898582828988745,99.1701465230943
0.51,-0.027633687870193623,0.06039506108528683,102.34831842139008
0.52,-0.251997272829514,-0.07618740921359506,103.49385066052855
0.53,-0.058332702043868985,0.034933593364906326,102.88708127528568
0.54,-0.25606912418787037,-0.08833536931229369,101.23678944792525
0.55,-0.05485561549066582,0.03204434880089152,98.42887533140906
0.56,-0.2543305809112688,-0.0947048402829627,95.51970704599803
0.57,-0.05197329374261582,0.03550815904525018,93.50898060249706
0.58,-0.24504309972310767,-0.09239016139929174,93.36314437416347
0.59,-0.04094726927785313,0.019879972539897352,94.82301791375156
0.6,-0.23808892661670134,-0.10396355581764652,96.32822914090447
0.61,-0.03165978808969203,0.025100312149878654,96.81107551347009
0.62,-0.24911495108146403,-0.10570366902097361,96.74382461024891
0.63,-0.03399309617144679,0.02741499103354961,95.11544599854481
0.64,-0.228252431762245,-0.10164887693397556,92.76770941081182
0.65,-0.029921244813090445,0.030878801277908274,91.97052173779659
0.66,-0.23053998870514184,-0.09990876373064846,91.61084274978214
0.67,-0.022967071706684102,0.029729669917220564,91.81335108757179
0.68,-0.24097124836475134,-0.10337257397500713,92.16169565369503
0.69,-0.022372306901530928,0.025100312149878654,92.27352861635498
0.7,-0.23227853198174342,-0.10859291358498842,90.44339729498732
0.71,-0.011392033575626178,0.034933593364906326,86.99471052755463
0.72,-0.23287329678689658,-0.09816865052732136,84.26538173615083
0.73,-0.00905872549387142,0.0430267613766069,82.80550819656276
0.74,-0.1760503823253395,-0.06402303295260088,82.41258157100074
0.75,0.07791418947506579,0.07370856870696871,82.46849805233073
0.76,-0.11460660283913084,-0.04146722595853073,83.81653862925884
0.77,0.12778293083021652,0.09396611297966345,86.62445274577505
0.78,-0.10412959204066338,-0.04087624411589134,88.1515771885843
0.79,0.08253505449971738,0.10205928099136402,88.11832955103675
0.8,-0.15111601164776414,-0.04378190484220168,87.33172067178666
0.81,0.02804544811991505,0.06676453205595585,85.43358281907172
0.82,-0.2125597911339728,-0.11959174232299935,83.63669913525162
0.83,-0.014274355323676175,0.015825180452899296,83.2437725096896
0.84,-0.24270979164135292,-0.11611151591634514,83.45685964124439
0.85,-0.014274355323676175,0.020454538220241205,84.54647539905288
0.86,-0.23982746989330292,-0.12594479713137283,85.52350256607534
0.87,-0.013679590518523002,0.020454538220241205,85.5801746755314
0.88,-0.22706290215193867,-0.1427385311597089,83.67070240092525
0.89,0.06862670828690469,0.034933593364906326,81.77256454821033
0.9,0.20606312941614582,0.1940718706578584,81.05320657218142
0.91,1.0902953901234838,0.6425778407342709,80.51444371828582
0.92,0.16026623941935142,0.20333058619254218,79.82908900793055
0.93,-0.15225979011921253,0.08933675521232154,78.50371727478485
0.94,-0.24389932125165928,-0.025839039453177896,78.76214209390447
0.95,0.03907147258467774,0.06039506108528683,80.68294879040184
0.96,-0.20853369091447438,-0.0941138584403233,81.95240404221755
0.97,0.017614188460305536,0.04593242210291725,81.8284810295403
0.98,-0.2003899881977617,-0.0912246138763085,80.53711256206824
0.99,0.029783991396516635,0.056914834678632634,77.79644934877324
1.0,-0.19631813683940535,-0.0738727303299241,75.5839701956087
1.01,0.03792769411322933,0.0684882290969874,75.22429120759425
1.02,-0.18240979062659268,-0.06402303295260088,75.75247526772472
1.03,0.05471836207409201,0.08122717103832543,77.80778377066444
1.04,-0.1563316414775689,-0.04030167843554748,79.22307525081375
1.05,0.09182253568787847,0.12115127774107552,78.67222234690087
1.06,-0.12270455441698559,-0.009045305424841818,75.70713758015987
1.07,0.13588088240807128,0.168035837257134,73.61858143967258
1.08,-0.06473786148398009,0.05460015579496168,73.62991586156379
1.09,0.21416108099400058,0.2351615248835917,74.6401906661338
1.1,0.01875796693175395,0.11652191997373361,75.38146185781905
1.11,0.28315379839176874,0.2750856315863418,74.35985263135782
1.12,0.062267299985651524,0.1298354275954155,74.57293976291261
1.13,0.2860818712786767,0.23458695920324785,77.54935895154482
1.14,-0.00905872549387142,0.03839740360926499,81.61539389798553
1.15,0.15038399342603714,0.12868629623472777,88.08432628536312
1.16,-0.14590038181795936,-0.06402303295260088,94.56459309463192
1.17,0.04776418896768567,0.05865494788195973,98.15911609039821
1.18,-0.22765766695709183,-0.11496238455565744,99.95599977421831
1.19,-0.0021045523874650774,0.028564122394237317,99.67490611131626
1.2,-0.2543305809112688,-0.12131543936403091,99.59632078620386
1.21,-0.01834620668203252,0.016990727975882542,99.74291264266354
1.22,-0.2636180620994299,-0.1346289469857128,99.48448782354392
1.23,-0.034587860976599966,0.0193054068595535,98.5293738721778
1.24,-0.2832910518083426,-0.12537023145102896,96.17105849067967
1.25,-0.04154203408300631,0.018139859336570252,94.48600776951952
1.26,-0.2723107784824378,-0.13694362586938374,94.17166646906992
1.27,-0.04094726927785313,0.018730841179209645,94.37417480685957
1.28,-0.2792649515888442,-0.1328888337823857,93.56565271195312
1.29,-0.04382959102590313,0.015250614772555442,91.85793314701056
1.3,-0.2862191246952505,-0.13751819154972758,91.70076249678574
1.31,-0.04035250447269996,0.015250614772555442,92.34077951957617
1.32,-0.28274203814204735,-0.12885045785768318,92.5992043386958
1.33,-0.036875417919496785,0.026249443510566364,92.77904383270302
1.34,-0.28855243277700526,-0.129425023538027,92.77904383270302
1.35,-0.04616289910765789,0.0193054068595535,91.5103442090134
1.36,-0.29257853299650366,-0.12885045785768318,88.55583823603753
1.37,-0.03747018272464996,0.030878801277908274,84.75956253060767
1.38,-0.2856243598900973,-0.12248098688701416,83.58078265392164
1.39,-0.03747018272464996,0.034359027684562476,83.80520420736764
1.4,-0.2856243598900973,-0.12653577897401222,85.00665292783609
1.41,-0.03573163944804838,0.028564122394237317,86.16351958886577
1.42,-0.2693827055955299,-0.11033302678831552,85.79326180708618
1.43,0.008921472077297609,0.05982049540494298,84.68097720549527
1.44,-0.20446183955611805,-0.08254046402196853,84.20946525482086
1.45,0.0657443865388547,0.0945406786600073,85.11924151862212
1.46,-0.17023998769038157,-0.05998465702789837,84.96207086839732
1.47,0.04369233760932932,0.09800448890436597,83.60345149770406
1.48,-0.23982746989330292,-0.062299335911569324,83.322357834802
1.49,-0.032254552894845204,0.06617355021331646,83.83920747304127
1.5,-0.3198462117558338,-0.1456277757237237,84.19813083292964
1.51,-0.08267230791629118,0.014101483411867734,84.7935657962813
1.52,-0.34070873107505284,-0.15257181237473658,85.38900075963296
1.53,-0.09429309718620704,0.01641616229553869,84.8834855432849
1.54,-0.34537534723856234,-0.1456277757237237,82.34533066777956
1.55,-0.08907746735640229,0.006566464918215475,79.25632288836131
1.56,-0.3488524337917655,-0.15372094373542428,78.89739952847295
1.57,-0.056045145100972166,-0.025248057610538503,79.89709553927781
1.58,-0.18648164198494901,0.026824009190910218,82.06423700487751
1.59,0.7864620769679278,0.5216235569407418,83.546779388248
1.6,0.4895829369187781,0.3925761051355122,82.60375548689919
1.61,-0.17545561752018632,0.1136326754097188,80.16609915216257
1.62,-0.44799515169691384,-0.05476431741791706,78.4818040591285
1.63,-0.07224104825668168,0.08296728424165253,78.79614535957812
1.64,-0.3198462117558338,-0.11264770567198648,78.35788104645125
1.65,-0.08152852944484278,0.040137516812592096,77.2123488073128
1.66,-0.3331597931634933,-0.1172770634393284,76.87533866308075
1.67,-0.07571813480988485,0.047656119143948815,77.26826528864277
1.68,-0.33897018779845123,-0.11437140271301804,77.24635207298643
1.69,-0.0629993182073785,0.05865494788195973,77.51535568587119
1.7,-0.3122972738442743,-0.09179917955665234,77.77378050499081
1.71,-0.050234750466014236,0.07602324759063966,77.20101438542157
1.72,-0.29317329780165685,-0.0738727303299241,75.11245824493429
1.73,-0.01834620668203252,0.10611407307836208,72.76472165720129
1.74,-0.2734545569538862,-0.03278307610419076,72.66346748830647
1.75,0.005444385524094439,0.15703700851912308,74.12409665602063
1.76,-0.22532435887533708,0.023360198946551555,76.45974319373633
1.77,0.07731942466991262,0.22243899910454923,77.74053286744326
1.78,-0.14997223317631572,0.0846909812826841,76.87533866308075
1.79,0.1538610799792403,0.27914042367333985,74.97720081036583
1.8,-0.07343057786698802,0.12637161735105681,74.30318052190177
1.81,0.19329856167478154,0.2739365002256541,76.29123812162031
1.82,-0.10531912165096974,0.05228547691129072,78.75080767201327
1.83,0.07269855964526103,0.15066753754845408,81.78389897010153
1.84,-0.2688336919292346,-0.07270718280694086,87.7586505630223
1.85,-0.06528687515027533,0.056914834678632634,94.13841883152236
1.86,-0.3714534963875861,-0.13116513674135413,97.6090188146114
1.87,-0.13949522237784828,0.019879972539897352,100.8098595566896
1.88,-0.4224660162141853,-0.15372094373542428,102.08989360227045
1.89,-0.16850144441377998,0.005991899237871621,101.20278618225161
1.9,-0.4450670788100059,-0.15431192557806367,98.28228347494938
1.91,-0.17952746887854268,0.0077320124411987224,94.54267987897558
1.92,-0.45321078152671856,-0.16240509358976424,93.48706738684072
1.93,-0.18414833390319427,0.005417333557527767,94.18300089096113
1.94,-0.45261601672156543,-0.16529433815377906,95.38520523955566
1.95,-0.19691290164455852,0.005417333557527767,95.78946628700888
1.96,-0.47407330084593763,-0.16529433815377906,94.2389173722911
1.97,-0.19576912317311013,0.00888114380188643,92.58786991680459
1.98,-0.4711909790978876,-0.16762543319974554,92.20627771313379
1.99,-0.21082124785737122,0.0013625414705297112,92.89163242348907
2.0,-0.49031495514050505,-0.1693491302407771,92.31886630391983
2.01,-0.22532435887533708,0.00888114380188643,90.62248116086847
2.02,-0.4972691282469114,-0.16762543319974554,90.1063871507553
2.03,-0.21603687768717597,0.017565293656226395,90.12830036641164
2.04,-0.5042233013533177,-0.1647197724734352,89.15127319938918
2.05,-0.2357556185349466,0.026824009190910218,88.33141668259154
2.06,-0.5175826338998352,-0.15951584902574945,87.12996796212309
2.07,-0.2433045564465061,0.02162008574322445,84.81623464006373
2.08,-0.5181316475661304,-0.15140626485175332,82.21007323321109
2.09,-0.24504309972310767,0.023360198946551555,80.71695205607547
2.1,-0.499007671523513,-0.1456277757237237,81.34563465697468
2.11,-0.19576912317311013,0.05519113763760107,84.41197359261051
2.12,-0.4456618436151591,-0.10222344261431941,86.87154314300345
2.13,-0.14475660334651097,0.09628079186333441,87.54556343146751
2.14,-0.4178451511895337,-0.09296472707963559,86.38869677043783
2.15,-0.19517435836795693,0.0910604522533531,84.74898373684253
2.16,-0.5042233013533177,-0.10453812149799037,84.38930474882808
2.17,-0.27285979214873307,0.04708155346360496,84.90615438706733
2.18,-0.585385821687297,-0.17397848800811902,84.47922449583169
2.19,-0.3187024332843854,0.0007879757901858571,83.18785602835963
2.2,-0.6242285385776851,-0.17860784577546093,82.92943120924001
2.21,-0.3528785340112639,-0.011359984308512773,83.11984949701237
2.22,-0.630038933212643,-0.17688414873442937,82.90676236545758
2.23,-0.3476629041814592,0.0042517860345445205,82.67100639012038
2.24,-0.6375878711242026,-0.18151350650177128,82.68234081201159
2.25,-0.3198462117558338,-0.03913613091256423,82.06423700487751
2.26,-0.4775503873991408,-0.003841381977156053,80.22277126161863
2.27,0.5034912831315907,0.505995370435389,78.26796129944765
2.28,0.23506935145207752,0.3856320684844993,78.12212507111406
2.29,-0.4224660162141853,0.1298354275954155,79.29032615403494
2.3,-0.7361358242241977,-0.08544612474827887,81.06454099407263
2.31,-0.32044097656098697,0.0644498531722849,81.85114987332273
2.32,-0.5981503894286613,-0.1456277757237237,80.2560188991662
2.33,-0.3273951496673933,0.027989556713893464,77.95361999899804
2.34,-0.6167253518049834,-0.16125596222907654,77.1450979040916
2.35,-0.3198462117558338,0.03724827224857728,77.51535568587119
2.36,-0.6016274759818645,-0.13751819154972758,77.23501765109522
2.37,-0.30534310073786797,0.05228547691129072,76.21265279650791
2.38,-0.5964118461520597,-0.12074087368368705,75.97689682117071
2.39,-0.29257853299650366,0.07196845550364162,76.14540189328672
2.4,-0.5744055483613922,-0.10164887693397556,75.75247526772472
2.41,-0.2647618405708783,0.09800448890436597,75.63988667693867
2.42,-0.5332295233892494,-0.0513005071735584,76.04414772439189
2.43,-0.22358581559873547,0.15183308507143733,75.94289355549706
2.44,-0.4862431037821487,0.010046691324869678,74.258598462463
2.45,-0.14704416028940778,0.23284684599992075,72.28187528463567
2.46,-0.3975316455366099,0.07311758686432931,72.36046060974807
2.47,-0.06528687515027533,0.2866754421669921,74.13467544978576
2.48,-0.31925144695068064,0.10437395987503498,76.74083685663838
2.49,-0.03051600961824362,0.26873257677796836,79.09915223813651
2.5,-0.3644993232811798,0.03839740360926499,81.77256454821033
2.51,-0.15399833339581412,0.16687028973415077,84.54647539905288
2.52,-0.5053670798247661,-0.05476431741791706,87.8372358881347
2.53,-0.28100349486544574,0.07370856870696871,91.37508677444494
2.54,-0.6109149571700255,-0.13405438130536892,94.46409455386318
2.55,-0.3291336929439949,0.04130306433557534,97.79943710238376
2.56,-0.6491629092552604,-0.1629796592701081,100.33759197788912
2.57,-0.3610222367279766,0.011195822685557386,101.7415490361472
2.58,-0.6491629092552604,-0.17688414873442937,101.05694995391802
2.59,-0.35868892864622187,0.011195822685557386,98.81046753507985
2.6,-0.6549733038902184,-0.17340392232777516,96.10380758745848
2.61,-0.3610222367279766,0.020454538220241205,93.25055578337744
2.62,-0.6538295254187699,-0.17745871441477323,90.90357482377053
2.63,-0.3610222367279766,0.013510501569228341,90.43206287309611
2.64,-0.6683326364367358,-0.1710892434441042,91.65618043734699
2.65,-0.36797640983438296,0.012935935888884486,94.92427208264637
2.66,-0.6740972799328359,-0.17860784577546093,95.94663693723368
2.67,-0.36738164502922976,0.012935935888884486,94.45276013197197
2.68,-0.6799076745677938,-0.18208807218211515,92.5092845916922
2.69,-0.3691201883058314,0.017565293656226395,91.16199964289015
2.7,-0.6677378716315826,-0.17282935664743132,90.12830036641164
2.71,-0.365048336947475,0.0227856332662077,89.4096980185088
2.72,-0.6613784633303295,-0.1635706411127475,88.63442356114993
2.73,-0.35173475553981554,0.02450933030723926,86.61311832388382
2.74,-0.6648555498835327,-0.1710892434441042,86.00634893864095
2.75,-0.3656431017526282,0.019879972539897352,86.14160637320941
2.76,-0.6631170066069311,-0.1618305279094204,85.77059296330376
2.77,-0.36042747192282343,0.02450933030723926,84.47922449583169
2.78,-0.6665940931601342,-0.1618305279094204,83.0866018594648
2.79,-0.341303495880206,0.03608272472559404,82.01965494543875
2.8,-0.6045555488687724,-0.129425023538027,81.45822324776071
2.81,-0.2566181378541656,0.07717237895132738,81.7498957044279
2.82,-0.537850388413901,-0.0912246138763085,83.73795330414644
2.83,-0.19457959356280377,0.09048588657300925,86.68036922710502
2.84,-0.5146545610129273,-0.08602069042862273,87.7699849849135
2.85,-0.24678164299970928,0.1136326754097188,87.10729911834066
2.86,-0.5796211781911971,-0.10337257397500713,85.40033518152417
2.87,-0.3209899902272822,0.07311758686432931,83.546779388248
2.88,-0.6323722412943977,-0.1635706411127475,81.95240404221755
2.89,-0.34711389051516395,0.021045520062880598,81.35696907886589
2.9,-0.6543785390850652,-0.16762543319974554,81.50280530719948
2.91,-0.34011396626989965,0.0193054068595535,81.37963792264831
2.92,-0.6526399958084637,-0.1757186012114461,82.01965494543875
2.93,-0.33723164452184967,0.018730841179209645,83.49086290691803
2.94,-0.630038933212643,-0.18497731674612994,83.85054189493248
2.95,-0.2636180620994299,0.05056177987025916,82.42391599289196
2.96,-0.1882201852615506,0.16398104517013595,79.79584137038299
2.97,0.8084683747585952,0.6518365562689546,77.23501765109522
2.98,-0.2096774693859228,0.12520606982807359,75.40413070160147
2.99,-0.4502827086398106,0.05750581652127203,75.02253849793068
3.0,-0.6137972789180756,-0.062299335911569324,77.1564323259828
3.01,-0.2531410513009624,0.0673390977362997,80.69428321229304
3.02,-0.5604514510097216,-0.13520351266605662,81.94106962032633
3.03,-0.26997747040068304,0.05750581652127203,80.2560188991662
3.04,-0.5627847590914764,-0.12825947601504378,77.18967996353037
3.05,-0.2444483349179545,0.06154419244597454,75.03387291982189
3.06,-0.543660783048859,-0.12653577897401222,74.23592961868059
3.07,-0.21777542096377756,0.06965377661997066,74.32584936568419
3.08,-0.5140597962077741,-0.10742736606200518,75.28096331705031
3.09,-0.18588687717979585,0.10322482851434728,75.88697707416709
3.1,-0.4827660172289455,-0.0703925039232699,76.71816801285595
3.11,-0.13775667910124667,0.14892742434512699,77.49344247021484
3.12,-0.43115873259719323,-0.02352436056950694,76.66225153152598
3.13,-0.1023910487640618,0.18018379735583265,75.03387291982189
3.14,-0.36971495311098457,0.03204434880089152,73.79842093367981
3.15,-0.016607663405430934,0.25715918235961355,72.57354774130286
3.16,-0.2856243598900973,0.0945406786600073,71.742356802614
3.17,0.056456905350693594,0.30923124916106226,72.03478488740726
3.18,-0.231134753510295,0.11594735429338976,74.28126730624543
3.19,0.07731942466991262,0.278565857992996,78.09945622733163
3.2,-0.29431707627310527,0.026249443510566364,81.26704933186228
3.21,-0.04328057735960789,0.16398104517013595,84.44522123015805
3.22,-0.40622436191961786,-0.0686523907199428,88.73567773004476
3.23,-0.1557368766724157,0.07774694463167123,93.2399769896123
3.24,-0.475217079317386,-0.12479566577068511,96.41814888790809
3.25,-0.1986514449211601,0.04593242210291725,98.23770141551061
3.26,-0.507700387906521,-0.1427385311597089,98.77646426940622
3.27,-0.1853378635135006,0.03782283792892114,97.9120256931698
3.28,-0.5013409796052677,-0.15372094373542428,97.48509580193415
3.29,-0.1928410502862022,0.04130306433557534,97.5976843927202
3.3,-0.4966743634417582,-0.1531463780550804,96.45215215358172
3.31,-0.17371707424358473,0.03956295113224824,94.6325996259792
3.32,-0.4943868064988614,-0.16009041470609328,92.85762915781542
3.33,-0.1911025070096006,0.03261891448123538,90.76907301732814
3.34,-0.4804327091471908,-0.15431192557806367,88.55583823603753
3.35,-0.1777889256019411,0.02450933030723926,87.8372358881347
3.36,-0.49612534977546296,-0.15662660446173463,89.4096980185088
3.37,-0.16790667960862682,0.03261891448123538,92.19494329124258
3.38,-0.47059621429273446,-0.14794245460739466,93.54298386817071
3.39,-0.16442959305542365,0.041877630015919196,92.82438152026788
3.4,-0.4613087331045733,-0.13579449450869602,90.48797935442609
3.41,-0.15921396322561887,0.03898838545190438,88.11832955103675
3.42,-0.4497336949735154,-0.1467769070844114,85.98443572298461
3.43,-0.14590038181795936,0.04882166666693206,84.2548029423857
3.44,-0.44854416536320907,-0.1392583047530547,83.20976924401597
3.45,-0.15518786300612047,0.05576570331794493,82.31132740210592
3.46,-0.4445180651437107,-0.129425023538027,82.82817704034518
3.47,-0.13546912215834986,0.07022834230031451,84.5691442428353
3.48,-0.4021982617001194,-0.10916747926533228,85.28774659073814
3.49,-0.04328057735960789,0.09511524434035117,84.44522123015805
3.5,-0.34011396626989965,-0.0738727303299241,83.1651871845772
3.51,-0.0015097875823119032,0.11594735429338976,81.91840077654392
3.52,-0.34478058243340914,-0.06402303295260088,81.07587541596384
3.53,-0.05778368837757375,0.12346595662474648,81.53680857287311
3.54,-0.4085576700013726,-0.09296472707963559,83.70395003847281
3.55,-0.13139727079999353,0.05750581652127203,86.1302719513182
3.56,-0.4300149541257448,-0.14331309684005275,86.90479078055101
3.57,-0.1302534923285451,0.03608272472559404,85.66933879440893
3.58,-0.4624982627148797,-0.15257181237473658,83.41227758180563
3.59,-0.1557368766724157,0.043617743219246295,81.49147088530827
3.6,-0.4624982627148797,-0.15431192557806367,80.43585839317342
3.61,-0.14823368989971414,0.030878801277908274,80.06484498326775
3.62,-0.433492040678948,-0.17688414873442937,80.2001024178362
3.63,-0.05718892357242058,0.12463150414772972,79.86309227360418
3.64,0.1759131289087657,0.2305321671162498,80.32326980238737
3.65,1.0027277103493935,0.5818052079161866,81.61539389798553
3.66,-0.2601409755462267,-0.01715488959883793,81.65997595742428
3.67,-0.28214727333689416,0.06502441885262875,80.16609915216257
3.68,-0.4358253487607027,-0.07733654057428276,77.96495442088926
3.69,-0.08500561599804594,0.0684882290969874,75.85372943661955
3.7,-0.38769515068215354,-0.11785162911967224,74.58427418480382
3.71,-0.1023910487640618,0.07833792647431062,74.68552835369864
3.72,-0.3899827076250504,-0.1172770634393284,76.44840877184512
3.73,-0.08619514560835229,0.07948705783499833,78.96465043169412
3.74,-0.37781290468883927,-0.0941138584403233,79.78450694849178
3.75,-0.05718892357242058,0.10091014963067632,78.33521220266884
3.76,-0.35868892864622187,-0.06924337256258219,75.60663903939113
3.77,-0.042091047749301544,0.12868629623472777,73.70850118667619
3.78,-0.33434932277379964,-0.03567232066820557,72.96722999499094
3.79,-0.017156677071726172,0.17266519502447591,72.98914321064728
3.8,-0.29376806260681,0.00888114380188643,73.78708651178859
3.81,0.04716942416253249,0.22012432022087827,74.1686787154594
3.82,-0.20853369091447438,0.07311758686432931,74.89861548525343
3.83,0.12663915235876813,0.28145510255701084,76.01090008684434
3.84,-0.11863270305862925,0.13040999327575933,75.93231476173194
3.85,0.20606312941614582,0.3190809465383855,74.88728106336221
3.86,-0.06240455340222533,0.12405693846738587,73.83166857122735
3.87,0.20258604286294266,0.26351223716798705,73.21432039221936
3.88,-0.1574754199490173,0.023934764626895408,74.44977237836144
3.89,0.06400584326225311,0.16109180060612116,80.45852723695585
3.9,-0.28388581661349577,-0.061133788388586074,88.28683462315277
3.91,-0.03632640425320155,0.08702207632865058,95.12678042043602
3.92,-0.37085873158243293,-0.11205672382934709,98.82180195697106
3.93,-0.08500561599804594,0.05808038220161588,100.82119397858082
3.94,-0.385956607405552,-0.12594479713137283,101.23678944792525
3.95,-0.08674415927464753,0.05982049540494298,99.69757495509869
3.96,-0.3812899912420425,-0.11900076048035996,96.94633294803856
3.97,-0.09255455390960546,0.04882166666693206,94.45276013197197
3.98,-0.38476707779524566,-0.13405438130536892,92.66721087004308
3.99,-0.08907746735640229,0.052876458753930114,91.45367209955734
4.0,-0.38014621277059407,-0.129425023538027,91.99319058157901
4.01,-0.08793368888495388,0.05634026899828878,93.18330488015624
4.02,-0.38769515068215354,-0.12885045785768318,93.17197045826504
4.03,-0.08500561599804594,0.04882166666693206,91.91460525646661
4.04,-0.3807409775757472,-0.12537023145102896,90.17363805397649
4.05,-0.09314931871475864,0.05865494788195973,88.16291161047552
4.06,-0.38188475604719563,-0.12074087368368705,87.1413023840143
4.07,-0.0751691211435896,0.0684882290969874,87.36572393746029
4.08,-0.36678688022407663,-0.1137968370326742,88.7137645143884
4.09,-0.08326707272144436,0.05576570331794493,89.61220635629846
4.1,-0.3743358181356361,-0.1201663080033432,88.93818606783441
4.11,-0.06821494803718327,0.07370856870696871,86.41060998609417
4.12,-0.3691201883058314,-0.11496238455565744,83.35636110047565
4.13,-0.08500561599804594,0.06965377661997066,81.15446074107624
4.14,-0.3644993232811798,-0.0993341980503046,80.2786877429486
4.15,-0.029372231146795207,0.10263384667170788,80.188767995945
4.16,-0.28155250853174096,-0.06461401479524027,81.06454099407263
4.17,0.026306904843313467,0.13503935104310125,82.05290258298629
4.18,-0.23694514814525294,-0.05650443062124417,83.73795330414644
4.19,0.028640212925068225,0.13040999327575933,85.66933879440893
4.2,-0.28681388950040365,-0.0478202807669042,85.72601090386499
4.21,-0.03399309617144679,0.1118925622063917,84.8834855432849
4.22,-0.36738164502922976,-0.09816865052732136,83.87245511058882
4.23,-0.07343057786698802,0.05634026899828878,82.25541092077594
4.24,-0.39519833745485516,-0.12537023145102896,80.82878501873542
4.25,-0.11286805956252925,0.05228547691129072,80.67161436851062
4.26,-0.39927018881321147,-0.12825947601504378,82.32266182399714
4.27,-0.11341707322882448,0.05460015579496168,84.6477295679477
4.28,-0.38883892915360196,-0.12711034465435606,85.00665292783609
4.29,-0.09195978910445228,0.03030423559756442,83.1651871845772
4.3,-0.2780754219785378,-0.029877415377880412,80.24468447727497
4.31,0.5516214812101399,0.4533323217913009,78.44780079345487
4.32,0.7876058554393762,0.43192564615791845,77.87503467388564
4.33,0.11039749806420068,0.24153099585426072,77.88636909577684
4.34,-0.5059618446299193,-0.061133788388586074,78.34654662456005
4.35,-0.07745667808648643,0.13851957744975546,78.15612833678769
4.36,-0.3187024332843854,-0.08716982178931043,78.85206184090809
4.37,-0.04849620718941265,0.08759664200899445,80.1101826708326
4.38,-0.32506184158563856,-0.09353929275997945,79.82908900793055
4.39,-0.04094726927785313,0.08180173671866929,78.27929572133885
4.4,-0.3181076684792322,-0.08602069042862273,76.31390696540274
4.41,-0.03284931769999838,0.08585652880566734,74.57293976291261
4.42,-0.30648687920931633,-0.08081676698093697,73.06772853575968
4.43,-0.020084749958634105,0.11248354404903109,73.06772853575968
4.44,-0.2891014464433005,-0.06402303295260088,75.79705732716349
4.45,0.006588163995542851,0.12809531439208838,79.09915223813651
4.46,-0.25606912418787037,-0.022358813046523693,79.14448992570135
4.47,0.04890796743913408,0.16687028973415077,76.54966294073994
4.48,-0.19984097453146646,0.015825180452899296,73.20298597032814
4.49,0.12023399291865702,0.2293830357555621,71.5965205742804
4.5,-0.11982223266893559,0.07833792647431062,71.66377147750158
4.51,0.20084749958634107,0.2860844603243527,72.98914321064728
4.52,-0.042685812554454715,0.11768746749671685,74.78678252259347
4.53,0.25767041404789814,0.284935328963665,75.7411408458335
4.54,-0.04556813430250471,0.07428313438731257,78.98731927547655
4.55,0.17069749907896092,0.20333058619254218,84.65906398983891
4.56,-0.19457959356280377,-0.03682145202889328,89.51095218740363
4.57,0.028640212925068225,0.11420724109006265,94.81168349186034
4.58,-0.3007222357132164,-0.09642853732399426,98.22636699361941
4.59,-0.05718892357242058,0.0673390977362997,99.18072531685944
4.6,-0.36042747192282343,-0.12711034465435606,98.41754090951784
4.61,-0.07745667808648643,0.06154419244597454,97.2825874641445
4.62,-0.36738164502922976,-0.12768491033469992,97.70951735538014
4.63,-0.09314931871475864,0.05634026899828878,98.92305612586588
4.64,-0.36216601519942504,-0.12131543936403091,99.0915611979819
4.65,-0.08907746735640229,0.05865494788195973,97.22667098281453
4.66,-0.37085873158243293,-0.11900076048035996,94.35150596307714
4.67,-0.08674415927464753,0.06039506108528683,92.25161540069864
4.68,-0.3598327071176703,-0.11611151591634514,91.48767536523097
4.69,-0.09255455390960546,0.05634026899828878,91.29650144933252
4.7,-0.3714534963875861,-0.12131543936403091,91.29650144933252
4.71,-0.09488786199136022,0.05228547691129072,91.01616341455656
4.72,-0.37200251005388135,-0.12422110009034125,92.46470253225343
4.73,-0.09488786199136022,0.05750581652127203,94.36284038496835
4.74,-0.3685254235006782,-0.11900076048035996,94.6325996259792
4.75,-0.09314931871475864,0.05634026899828878,93.53164944627949
4.76,-0.36623786655778134,-0.11611151591634514,91.10532753343409
4.77,-0.09141077543815705,0.06791366341664355,87.59014549090628
4.78,-0.3644993232811798,-0.11611151591634514,83.73795330414644
4.79,-0.08386183752659754,0.0644498531722849,82.53574895555191
4.8,-0.36971495311098457,-0.11322227135233033,83.97370927948364
4.81,-0.0844566023317507,0.08180173671866929,86.73628570843499
4.82,-0.30534310073786797,-0.0686523907199428,87.6913996598011
4.83,0.0031110774423396795,0.1136326754097188,86.07435546998823
4.84,-0.25895144593592034,-0.04319092299956229,83.56944823203042
4.85,0.03385584275487298,0.12752074871174454,82.34533066777956
4.86,-0.25606912418787037,-0.04261635731921844,82.51383573989557
4.87,-0.017751441876879347,0.1390941431300993,83.26644135347203
4.88,-0.33489833644009487,-0.05650443062124417,84.28805057993326
4.89,-0.08907746735640229,0.09742992322402212,84.16488319538209
4.9,-0.36971495311098457,-0.116686081596689,85.15324478429575
4.91,-0.12677640577534194,0.05750581652127203,86.70303807088744
4.92,-0.4079629051962194,-0.12537023145102896,86.71437249277865
4.93,-0.12851494905194352,0.04882166666693206,84.41197359261051
4.94,-0.39986495361836466,-0.129425023538027,81.5927250542031
4.95,-0.11689415978202766,0.040137516812592096,80.71695205607547
4.96,-0.3755253477459425,-0.1467769070844114,80.71695205607547
4.97,-0.013130576852227764,0.12231682526405876,80.75019969362302
4.98,0.162004782695953,0.22821748823257884,81.72722686064547
4.99,1.0665047979173568,0.6634099506873095,83.01935095624361
5.0,-0.07978998616824119,0.14314893521709737,83.11984949701237
5.01,-0.23227853198174342,0.1437235008974412,81.04262777841629
5.02,-0.365048336947475,-0.02467349193019465,78.22337924000888
5.03,-0.04556813430250471,0.09800448890436597,77.3808538794288
5.04,-0.33027747141544334,-0.08139133266128082,77.74053286744326
5.05,-0.06528687515027533,0.09568981002069502,77.95361999899804
5.06,-0.33897018779845123,-0.08313144586460793,76.56099736263116
5.07,-0.06647640476058168,0.09685535754367826,75.11245824493429
5.08,-0.3273951496673933,-0.07155805144625314,76.22398721839912
5.09,-0.04094726927785313,0.11768746749671685,77.95361999899804
5.1,-0.3122972738442743,-0.04841126260954359,78.58230259989725
5.11,-0.020084749958634105,0.1315755407987426,78.18937597433525
5.12,-0.2792649515888442,-0.021209681685835986,76.71816801285595
5.13,0.010660015353899195,0.16687028973415077,74.93261875092706
5.14,-0.2444483349179545,0.0193054068595535,73.45007636755656
5.15,0.06052875670904994,0.21895877269789502,73.04581532010334
5.16,-0.17431183904873793,0.07948705783499833,74.37118705324905
5.17,0.14169127704302922,0.280880536876667,76.71816801285595
5.18,-0.08038475097339436,0.14025969065308255,77.86370025199443
5.19,0.22344856218216166,0.32254475678274414,77.32493739809883
5.2,-0.028777466341642032,0.14720372730409542,76.2799036997291
5.21,0.21475584579915374,0.2855098946440089,77.3022685543164
5.22,-0.11341707322882448,0.0655989845329726,82.91809678734879
5.23,0.08486836258147214,0.17903466599514495,89.93788207863928
5.24,-0.25606912418787037,-0.03509775498786172,93.44172969927588
5.25,-0.026444158259887274,0.11305810972937495,96.44081773169052
5.26,-0.3331597931634933,-0.07502186169061181,100.22575901522916
5.27,-0.07864620769679277,0.07543226574800027,101.92138853015445
5.28,-0.35232952034496867,-0.09296472707963559,101.4272077356976
5.29,-0.10010349182116497,0.07196845550364162,100.49551825624
5.3,-0.3691201883058314,-0.09527940596330654,98.84447080075348
5.31,-0.10531912165096974,0.05750581652127203,96.33956356279569
5.32,-0.3639045584760266,-0.10105789509133617,93.87999401240273
5.33,-0.09141077543815705,0.07370856870696871,92.77904383270302
5.34,-0.36216601519942504,-0.09990876373064846,93.48706738684072
5.35,-0.09429309718620704,0.07139388982329775,95.00285740775878
5.36,-0.35754515017477345,-0.0993341980503046,96.29422587523084
5.37,-0.09543687565765546,0.05865494788195973,95.85671719023006
5.38,-0.3644993232811798,-0.10279800829466326,93.82332190294667
5.39,-0.09891396221085863,0.06096962676563069,92.79037825459424
5.4,-0.3644993232811798,-0.0993341980503046,93.25055578337744
5.41,-0.09369833238105388,0.07196845550364162,93.56565271195312
5.42,-0.35868892864622187,-0.0947048402829627,91.42042446200978
5.43,-0.09717541893425705,0.0690792109396268,89.3870291747264
5.44,-0.36738164502922976,-0.09296472707963559,89.22985852450158
5.45,-0.09950872701601181,0.07428313438731257,88.73567773004476
5.46,-0.36797640983438296,-0.0958539716436504,87.34305509367786
5.47,-0.10298581356921498,0.06676453205595585,86.2088572764306
5.48,-0.3610222367279766,-0.08716982178931043,85.04065619350972
5.49,-0.07343057786698802,0.08933675521232154,83.62536471336041
5.5,-0.3076764088196227,-0.055355299260556455,82.17682559566354
5.51,0.0077776936058491985,0.12637161735105681,81.65997595742428
5.52,-0.25487959457756404,-0.020618699843196593,83.53544496635679
5.53,0.03847670777952456,0.13040999327575933,86.24210491397817
5.54,-0.2444483349179545,-0.011359984308512773,87.74731614113108
5.55,-0.0026993171926182513,0.1390941431300993,87.08463027455824
5.56,-0.30648687920931633,-0.03509775498786172,84.89481996517613
5.57,-0.09603164046280863,0.0881712076893383,83.88378953248004
5.58,-0.3610222367279766,-0.09874321620766521,84.40063917071929
5.59,-0.11982223266893559,0.056914834678632634,84.6363951460565
5.6,-0.37840766949399246,-0.09990876373064846,82.73825729334156
5.61,-0.11053475148077449,0.06154419244597454,81.00862451274266
5.62,-0.3743358181356361,-0.0958539716436504,81.7612301263191
5.63,-0.11515561650542608,0.05402559011461782,82.67100639012038
5.64,-0.3383754229932981,-0.1184261948000161,83.10927070324723
5.65,0.03733292930807615,0.16746127157679017,83.00801653435241
5.66,0.29536935246683776,0.32197019110240027,82.24407649888474
5.67,0.9737214883134617,0.6622444031643262,80.06484498326775
5.68,-0.231134753510295,0.09917003642734921,77.88636909577684
5.69,-0.22706290215193867,0.12578063550841742,77.223683229204
5.7,-0.3505909770683671,-0.016580323918494077,78.35788104645125
5.71,-0.0658816399554285,0.0846909812826841,80.0429317676114
5.72,-0.34070873107505284,-0.08254046402196853,80.95270803141267
5.73,-0.07805144289163961,0.07139388982329775,79.66058393581453
5.74,-0.32565660639079175,-0.07444729601026795,77.04384373519677
5.75,-0.06240455340222533,0.0846909812826841,75.90964591794952
5.76,-0.30648687920931633,-0.061133788388586074,75.93231476173194
5.77,-0.05197329374261582,0.10553950739801823,76.01090008684434
5.78,-0.29257853299650366,-0.04146722595853073,74.86536784770587
5.79,-0.03399309617144679,0.10957788332272074,73.865671836901
5.8,-0.2584024322696251,-0.009045305424841818,74.90994990714464
5.81,0.004300607052646027,0.14661274546145603,76.01090008684434
5.82,-0.22358581559873547,0.02450933030723926,76.49374645940996
5.83,0.05412359726893883,0.19870122842520027,76.25799048407276
5.84,-0.14997223317631572,0.0910604522533531,75.10112382304308
5.85,0.1434298203196308,0.2774167266323083,73.4719895832129
5.86,-0.05078376413230947,0.161666366286465,72.11337021251965
5.87,0.2338798218417712,0.3132860412480603,72.12470463441088
5.88,-0.0003660091108634917,0.16572115837346307,75.13437146059063
5.89,0.2182329323523569,0.2606229926039722,80.60436346528942
5.9,-0.09950872701601181,0.06502441885262875,85.87184713219858
5.91,0.08024749755682055,0.15066753754845408,90.65648442654211
5.92,-0.22532435887533708,-0.03567232066820557,94.41875686629832
5.93,-0.020633763624929344,0.07717237895132738,98.11377840283336
5.94,-0.29202951933020843,-0.07155805144625314,100.04591952122193
5.95,-0.06354833187367374,0.05865494788195973,100.14717369011676
5.96,-0.3111534953728259,-0.09007548251562078,97.27200867037938
5.97,-0.08038475097339436,0.04593242210291725,94.92427208264637
5.98,-0.32044097656098697,-0.0958539716436504,95.93530251534247
5.99,-0.0844566023317507,0.03319348016157923,97.06950033258973
6.0,-0.31463058192602905,-0.08659525610896658,97.2825874641445
6.01,-0.08212329424999595,0.03667370656823343,96.54131627245926
6.02,-0.3209899902272822,-0.0941138584403233,94.8683556013164
6.03,-0.07805144289163961,0.030878801277908274,92.5206190135834
6.04,-0.30822542248591794,-0.09990876373064846,90.9594913051005
6.05,-0.06647640476058168,0.03667370656823343,90.54389583575608
6.06,-0.30534310073786797,-0.09239016139929174,92.11635796613018
6.07,-0.06821494803718327,0.044766874579934,94.18300089096113
6.08,-0.29665038435486,-0.09179917955665234,94.69985052920038
6.09,-0.059522231654175334,0.041877630015919196,92.89163242348907
6.1,-0.2972451491600132,-0.08544612474827887,90.28547101663644
6.11,-0.06126077493077692,0.03376804584192308,89.08402229616799
6.12,-0.28502959508494413,-0.08544612474827887,88.12966397292796
6.13,-0.06180978859707216,0.03898838545190438,86.1302719513182
6.14,-0.28100349486544574,-0.06750325935925508,82.63700312444674
6.15,-0.052522307408911055,0.06039506108528683,81.05320657218142
6.16,-0.26997747040068304,-0.06170835406892993,82.08690584865992
6.17,-0.021823293235235693,0.07080290798065836,84.02962576081363
6.18,-0.2125597911339728,-0.03278307610419076,85.54617140985776
6.19,0.040810015861279324,0.1118925622063917,85.96176687920219
6.2,-0.16154727130737365,-0.003266816296812199,85.23183010940815
6.21,0.08198604083342213,0.12405693846738587,82.97401326867877
6.22,-0.16850144441377998,0.007157446760854868,81.69397922309793
6.23,0.01875796693175395,0.1118925622063917,81.46880204152585
6.24,-0.2461868781945561,-0.036246886348549424,82.55841779933434
6.25,-0.0687639617034785,0.034359027684562476,84.26538173615083
6.26,-0.28855243277700526,-0.0912246138763085,85.7373453257562
6.27,-0.07864620769679277,0.028564122394237317,85.70334206008256
6.28,-0.2972451491600132,-0.09179917955665234,84.01829133892241
6.29,-0.09369833238105388,0.01641616229553869,82.33399624588834
6.3,-0.30246077898981794,-0.09990876373064846,81.1325475254199
6.31,-0.08967223216155547,0.017565293656226395,80.0429317676114
6.32,-0.2508534943580656,-0.11959174232299935,79.98625965815535
6.33,0.09067875721643007,0.19870122842520027,80.63836673096307
6.34,0.6125162470300534,0.4267217227102327,81.26704933186228
6.35,0.7858673121627746,0.5436212144167637,80.87412270630027
6.36,-0.3378264093270028,-0.007321608383810255,79.81775458603933
6.37,-0.1574754199490173,0.11305810972937495,79.22307525081375
6.38,-0.24097124836475134,-0.02178424736617984,78.7848109376869
6.39,-0.027633687870193623,0.05808038220161588,77.63927869854844
6.4,-0.23461184006349817,-0.06402303295260088,76.69549916907353
6.41,-0.029372231146795207,0.05056177987025916,76.33657580918516
6.42,-0.22532435887533708,-0.04667114940621649,76.42649555618877
6.43,-0.017156677071726172,0.0638588713296455,76.68416474718232
6.44,-0.21082124785737122,-0.034506773145222325,77.32493739809883
6.45,-0.0021045523874650774,0.07543226574800027,77.6838607579872
6.46,-0.18936396373299902,-0.024098926249850796,77.12242906030917
6.47,0.01701942365515236,0.09859547074700536,75.71847200205107
6.48,-0.16154727130737365,0.014101483411867734,74.20268198113303
6.49,0.05993399190389676,0.13503935104310125,73.00047763253849
6.5,-0.10646290012241814,0.0684882290969874,72.96722999499094
6.51,0.1144235982836991,0.18944251289051647,73.69716676478498
6.52,-0.029921244813090445,0.1344647853627574,74.69686277558986
6.53,0.21361206732770532,0.2629376714876432,75.19104357004669
6.54,0.06400584326225311,0.19292273929717066,74.97720081036583
6.55,0.2866308849449719,0.2855098946440089,74.70744156935498
6.56,0.09996623840459117,0.17092508182114882,75.3482142202715
6.57,0.2402849812818823,0.2114401703665383,76.75217127852959
6.58,-0.009653490299024594,0.05982049540494298,80.39127633373465
6.59,0.10111001687603959,0.10263384667170788,86.33202466098177
6.6,-0.1342795925480435,-0.02004413416285274,91.43175888390098
6.61,-0.0003660091108634917,0.03724827224857728,96.51940305680291
6.62,-0.1911025070096006,-0.06633771183627184,99.49582224543512
6.63,-0.03573163944804838,0.0077320124411987224,100.92169251934956
6.64,-0.21082124785737122,-0.0767619748939389,100.66326770022994
6.65,-0.038064947529803134,0.016990727975882542,98.81046753507985
6.66,-0.21663164249232914,-0.08139133266128082,96.17105849067967
6.67,-0.04963998566086106,0.004842767877183913,93.89132843429394
6.68,-0.21603687768717597,-0.07850208809726601,92.77904383270302
6.69,-0.059522231654175334,0.002528088993512958,92.68912408569942
6.7,-0.22939621023369342,-0.08485514290563947,92.5319534354746
6.71,-0.05778368837757375,0.005991899237871621,91.99319058157901
6.72,-0.22244203712728708,-0.07618740921359506,92.02643821912656
6.73,-0.06414309667882692,-0.01426564503482312,91.7574346062418
6.74,-0.22999097503884658,-0.09065004819596464,91.5889295341258
6.75,-0.059522231654175334,0.0036772203542006663,90.70106648598087
6.76,-0.22358581559873547,-0.08139133266128082,90.49931377631731
6.77,-0.06702541842687691,-0.002101268773828952,90.21822011341526
6.78,-0.21027223419107596,-0.0738727303299241,88.25283135747912
6.79,-0.050234750466014236,0.010046691324869678,86.95012846811586
6.8,-0.2142983344105744,-0.07155805144625314,86.1975228545394
6.81,-0.06240455340222533,0.003102654673856812,85.13057594051332
6.82,-0.21027223419107596,-0.06170835406892993,83.91779279815367
6.83,-0.06354833187367374,0.010621257005213531,82.42391599289196
6.84,-0.20212853147436327,-0.05418975173757321,81.31163139130105
6.85,-0.014274355323676175,0.04419230889959015,81.06454099407263
6.86,-0.118083689392334,-0.016580323918494077,81.6040594760943
6.87,0.04369233760932932,0.08122717103832543,82.58108664311676
6.88,-0.08038475097339436,0.006566464918215475,83.37827431613199
6.89,0.03733292930807615,0.07196845550364162,83.73795330414644
6.9,-0.1360181358246451,0.005417333557527767,84.6477295679477
6.91,-0.03051600961824362,0.04708155346360496,84.98473971217973
6.92,-0.20853369091447438,-0.04378190484220168,84.43388680826685
6.93,-0.06180978859707216,-0.006730626541170862,83.05259859379117
6.94,-0.23287329678689658,-0.08485514290563947,82.95134442489635
6.95,-0.09314931871475864,-0.008470739744497963,83.41227758180563
6.96,-0.23287329678689658,-0.08313144586460793,82.09824027055114
6.97,-0.09950872701601181,-0.01889500280216503,80.91870476573904
6.98,-0.228252431762245,-0.08716982178931043,80.90737034384783
6.99,-0.06762018323203009,-0.03856156523222038,81.18846400674988
7.0,-0.11108376514706973,0.015825180452899296,81.63730711364187
7.01,0.537118370192174,0.39661448106021474,80.806116174953
7.02,0.909395387079203,0.5407155536904533,79.11048666002772
7.03,0.08660690585807372,0.19523741818084162,77.96495442088926
7.04,-0.3383754229932981,-0.010785418628168918,77.35818503564639
7.05,-0.06473786148398009,0.08528196312532349,77.50477689210605
7.06,-0.1406847519881546,-0.030468397220519805,77.97628884278046
7.07,-0.03747018272464996,0.01641616229553869,78.31329898701249
7.08,-0.1667629011371784,-0.04319092299956229,78.85206184090809
7.09,-0.03339833136629362,0.02450933030723926,78.4704696372373
7.1,-0.14704416028940778,-0.02756273649420946,76.85266981929834
7.11,-0.026444158259887274,0.03204434880089152,75.3482142202715
7.12,-0.1406847519881546,-0.02004413416285274,74.97720081036583
7.13,-0.004437860469219837,0.05402559011461782,75.21295678570303
7.14,-0.10184203509776656,0.00021341010984200296,74.47168559401779
7.15,0.029783991396516635,0.08296728424165253,74.04551133090823
7.16,-0.0751691211435896,0.047656119143948815,74.61827745047745
7.17,0.0657443865388547,0.13677946424642834,74.92128432903586
7.18,-0.020084749958634105,0.08933675521232154,75.13437146059063
7.19,0.12892670930166494,0.17440530822780304,74.76411367881104
7.2,0.07905796794651421,0.17209062934413208,73.89891947444855
7.21,0.22171001890556008,0.23805076944760653,73.21432039221936
7.22,0.15852769614274984,0.206219830756557,72.67480191019767
7.23,0.28374856319692193,0.24904959818561745,73.4719895832129
7.24,0.14457359879107923,0.16861040293747787,76.66225153152598
7.25,0.18053399393341726,0.1651465926931192,82.99668211246119
7.26,0.006588163995542851,0.056914834678632634,89.4656144998388
7.27,0.045430880885930905,0.06328430564930164,94.6439340478704
7.28,-0.09488786199136022,-0.006156060860827008,97.61959760837654
7.29,-0.038613961196098376,0.012361370208540633,99.5517387267651
7.3,-0.15285455492436573,-0.051875072853902256,100.30434434034156
7.31,-0.06240455340222533,-0.0003775717327973898,99.83283238966715
7.32,-0.15807018475417048,-0.053615186057229355,97.2040021390321
7.33,-0.06473786148398009,-0.007321608383810255,95.66554327433163
7.34,-0.15052124684261095,-0.05418975173757321,95.67687769622283
7.35,-0.05778368837757375,-0.006730626541170862,95.26128222687841
7.36,-0.13949522237784828,-0.04667114940621649,95.11544599854481
7.37,-0.05718892357242058,-0.002692250616468345,93.87999401240273
7.38,-0.15807018475417048,-0.053040620376885506,92.3634483633586
7.39,-0.06821494803718327,-0.008470739744497963,91.43175888390098
7.4,-0.1557368766724157,-0.051875072853902256,91.52092300277852
7.41,-0.06935872650863167,-0.010785418628168918,92.07177590669141
7.42,-0.14997223317631572,-0.0513005071735584,92.16169565369503
7.43,-0.07169203459038644,-0.00963628726748121,91.7574346062418
7.44,-0.14997223317631572,-0.04550560188323324,92.00452500347022
7.45,-0.08326707272144436,-0.011359984308512773,91.62217717167334
7.46,-0.15399833339581412,-0.03913613091256423,90.45397608875246
7.47,-0.07864620769679277,-0.00789617406415411,88.24149693558792
7.48,-0.15225979011921253,-0.03913613091256423,85.78192738519496
7.49,-0.07169203459038644,0.014101483411867734,83.85054189493248
7.5,-0.1534493197295189,-0.03104296290086366,81.43555440397829
7.51,-0.04382959102590313,0.03030423559756442,81.09854425974626
7.52,-0.08619514560835229,0.015825180452899296,82.42391599289196
7.53,0.029783991396516635,0.06502441885262875,84.14221435159966
7.54,-0.026444158259887274,0.030878801277908274,85.56884025364019
7.55,0.04950273224428725,0.07543226574800027,85.55750583174897
7.56,-0.06066601012562375,0.040712082492935946,84.62506072416528
7.57,-0.013679590518523002,0.06676453205595585,83.62536471336041
7.58,-0.11634514611573242,0.002528088993512958,83.55811381013922
7.59,-0.07397959153328326,-0.001526703093485098,84.04096018270484
7.6,-0.14649514662311255,-0.03278307610419076,84.33338826749811
7.61,-0.09369833238105388,-0.006156060860827008,84.14221435159966
7.62,-0.17083475249553476,-0.04898582828988745,84.5578098209441
7.63,-0.10586813531726497,-0.015989342075854684,84.47922449583169
7.64,-0.1638805793891284,-0.05244963853424611,83.72661888225524
7.65,-0.10760667859386655,-0.03104296290086366,82.23274207699352
7.66,-0.10705766492757132,-0.07733654057428276,81.88439751087027
7.67,0.12663915235876813,0.19638654954152934,81.57005621042067
7.68,0.8090631395637484,0.5077354836387161,80.39127633373465
7.69,0.6426662475374335,0.4816994502379917,79.87442669549539
7.7,-0.2682389271240815,0.004842767877183913,79.82908900793055
7.71,-0.14823368989971414,0.08933675521232154,79.71725604527059
7.72,-0.10298581356921498,0.015250614772555442,79.81775458603933
7.73,-0.03573163944804838,0.0227856332662077,79.12182108191894
7.74,-0.10358057837436815,-0.011950966151152166,77.77378050499081
7.75,-0.0687639617034785,-0.0003775717327973898,76.74083685663838
7.76,-0.10586813531726497,-0.00963628726748121,76.71816801285595
7.77,-0.05137852893746265,0.02741499103354961,77.40352272321122
7.78,-0.08907746735640229,0.011786804528196778,77.34685061375517
7.79,-0.029921244813090445,0.040712082492935946,76.96525841008437
7.8,-0.06935872650863167,0.03376804584192308,76.72950243474718
7.81,-0.010202503965319831,0.07022834230031451,75.98823124306192
7.82,-0.03399309617144679,0.05519113763760107,75.03387291982189
7.83,0.03152253467311822,0.09859547074700536,74.39310026890539
7.84,0.01820895326545871,0.11248354404903109,74.44977237836144
7.85,0.08427359777631896,0.15761157419946695,74.42710353457902
7.86,0.09822769512798958,0.1824984762395036,73.48332400510412
7.87,0.16603088291545143,0.23169771463923305,73.22489918598448
7.88,0.17357982082701093,0.234012393522904,74.05609012467335
7.89,0.23561836511837278,0.2513642770692884,75.22429120759425
7.9,0.20372982133439105,0.2114401703665383,76.53832851884873
7.91,0.19444234014622996,0.17903466599514495,78.12212507111406
7.92,0.09356107896448006,0.10668863875870593,81.08720983785506
7.93,0.05471836207409201,0.07022834230031451,86.55720184255385
7.94,-0.036875417919496785,0.018730841179209645,92.33020072581104
7.95,-0.04501912063620948,0.005417333557527767,97.36192841738298
7.96,-0.09488786199136022,-0.011359984308512773,99.2487318482067
7.97,-0.08907746735640229,-0.017729455279181783,100.66326770022994
7.98,-0.10586813531726497,-0.019469568482508883,101.28137150736401
7.99,-0.08500561599804594,-0.011950966151152166,100.06858836500436
8.0,-0.11053475148077449,-0.028728284017192705,97.63093203026774
8.01,-0.07224104825668168,-0.011950966151152166,95.14869363609237
8.02,-0.10705766492757132,-0.024098926249850796,93.71148894028671
8.03,-0.0751691211435896,-0.014840210715166974,92.7563749889206
8.04,-0.09488786199136022,-0.02756273649420946,91.09474873966896
8.05,-0.08848270255124911,-0.019469568482508883,90.55523025764728
8.06,-0.09950872701601181,-0.022933378726867546,91.52092300277852
8.07,-0.07224104825668168,-0.003841381977156053,92.20627771313379
8.08,-0.08907746735640229,-0.02004413416285274,92.77904383270302
8.09,-0.0751691211435896,-0.01715488959883793,92.01510379723535
8.1,-0.07690766442019119,-0.013100097511839874,90.61114673897725
8.11,-0.06414309667882692,-0.009045305424841818,89.21852410261037
8.12,-0.07397959153328326,-0.00789617406415411,88.30874783880911
8.13,-0.07109726978523326,-0.0050069295001393,87.73598171923987
8.14,-0.08793368888495388,0.0007879757901858571,86.64712158955746
8.15,-0.0751691211435896,-0.0009521374131412439,85.43358281907172
8.16,-0.07864620769679277,-0.002101268773828952,84.42330801450171
8.17,-0.04382959102590313,0.018730841179209645,82.56975222122556
8.18,-0.016012898600277763,0.034933593364906326,81.19979842864109
8.19,0.03271206428342457,0.05228547691129072,80.91870476573904
8.2,0.041404780666432495,0.07022834230031451,82.08690584865992
8.21,0.07558088139331104,0.06791366341664355,83.36693989424077
8.22,0.03385584275487298,0.0684882290969874,82.6150899087904
8.23,0.01125478015905237,0.05460015579496168,82.09824027055114
8.24,-0.047901442384259474,0.03608272472559404,82.97401326867877
8.25,-0.07919522136308801,-0.00963628726748121,83.93970601381001
8.26,-0.07283581306183484,-0.011359984308512773,84.98473971217973
8.27,-0.10472435684581656,-0.029877415377880412,85.44491724096294
8.28,-0.09081601063300387,-0.014840210715166974,84.68097720549527
8.29,-0.09488786199136022,-0.030468397220519805,82.6936752339028
8.3,-0.08967223216155547,-0.014840210715166974,80.94137360952146
8.31,-0.09195978910445228,-0.022933378726867546,80.45852723695585
8.32,-0.05718892357242058,-0.04378190484220168,80.59302904339822
8.33,0.020496510208355533,0.10611407307836208,81.17712958485866
8.34,0.6867245942576263,0.4406097960122584,82.24407649888474
8.35,0.9261860550400657,0.512364841406058,81.71589243875427
8.36,-0.0629993182073785,0.08702207632865058,79.80717579227421
8.37,-0.2247295940701839,0.03550815904525018,78.12212507111406
8.38,-0.05485561549066582,0.06096962676563069,78.04353974600166
8.39,-0.023561836511837277,0.016990727975882542,78.11079064922284
8.4,-0.022967071706684102,0.03261891448123538,76.66225153152598
8.41,-0.03573163944804838,0.019879972539897352,76.16807073706914
8.42,-0.008463960688718245,0.03782283792892114,76.88667308497197
8.43,-0.04094726927785313,0.020454538220241205,77.16776674787403
8.44,-0.011941047241921417,0.04419230889959015,77.32493739809883
8.45,-0.012535812047074591,0.03898838545190438,76.89800750686318
8.46,0.016470409988857126,0.06791366341664355,76.05548214628311
8.47,0.01473186671225554,0.0690792109396268,74.875946641471
8.48,0.05183604032604201,0.10148471531102017,73.91025389633977
8.49,0.04602564569108408,0.09742992322402212,73.52866169266896
8.5,0.09589438704623482,0.14603817978111217,73.55133053645139
8.51,0.09241730049303165,0.1541477639551083,74.19134755924182
8.52,0.16429233963884984,0.21084918852389892,75.30287653270665
8.53,0.1776516721853673,0.22475367798822019,75.41546512349268
8.54,0.2547423411609902,0.25888287940064514,74.258598462463
8.55,0.26348080868285606,0.2502151457086007,73.16898270465451
8.56,0.3080881690693441,0.25252982459227163,73.48332400510412
8.57,0.24376206783508547,0.18307304191984744,74.88728106336221
8.58,0.20839643749790057,0.1541477639551083,76.9206763506456
8.59,0.11849544964205544,0.07311758686432931,82.49116689611314
8.6,0.09241730049303165,0.07080290798065836,89.83662790974445
8.61,-0.0015097875823119032,0.0013625414705297112,95.51970704599803
8.62,0.011803793825347606,0.013510501569228341,99.28197948575426
8.63,-0.04963998566086106,-0.02178424736617984,101.78688672371206
8.64,-0.00905872549387142,0.016990727975882542,101.48387984515367
8.65,-0.05197329374261582,-0.013100097511839874,99.52906988298267
8.66,-0.0038430956640666627,0.023934764626895408,96.5080686349117
8.67,-0.05137852893746265,-0.015414776395510829,94.6325996259792
8.68,-0.0026993171926182513,0.02450933030723926,93.36314437416347
8.69,-0.047901442384259474,-0.01889500280216503,92.89163242348907
8.7,0.0019672989708912677,0.025674877830222508,93.4643985430583
8.71,-0.04963998566086106,-0.025839039453177896,92.7563749889206
8.72,-0.0038430956640666627,0.011786804528196778,91.40909004011857
8.73,-0.050234750466014236,-0.02352436056950694,90.0278018256429
8.74,0.004849620718941265,0.014676049092211587,89.3311126933964
8.75,-0.04556813430250471,-0.029877415377880412,88.79234983950082
8.76,0.0013725341657380937,0.012935935888884486,87.3770583593515
8.77,-0.0473066775791063,-0.021209681685835986,87.32038624989544
8.78,0.004849620718941265,0.018730841179209645,88.72434330815354
8.79,-0.04675766391281106,-0.022933378726867546,89.1626076212804
8.8,0.009516236882450783,0.013510501569228341,88.27550020126155
8.81,-0.04963998566086106,-0.010785418628168918,85.82726507275981
8.82,0.008326707272144436,0.03724827224857728,82.41258157100074
8.83,-0.01834620668203252,0.007157446760854868,79.78450694849178
8.84,0.06922147309205787,0.06096962676563069,78.52638611856727
8.85,0.03792769411322933,0.03145336695825213,79.09915223813651
8.86,0.11154127653564909,0.0910604522533531,81.03129335652507
8.87,0.07677041100361738,0.049396232347275915,83.68203682281647
8.88,0.09937147359943799,0.09568981002069502,85.62475673497016
8.89,0.008921472077297609,0.043617743219246295,85.33308427830298
8.9,0.03966623738983091,0.052876458753930114,83.99637812326607
8.91,-0.06473786148398009,-0.02467349193019465,82.76092613712399
8.92,-0.011392033575626178,0.004842767877183913,82.33399624588834
8.93,-0.0966264052679618,-0.03567232066820557,82.22140765510231
8.94,-0.025300379788438864,0.018730841179209645,81.79447776386667
8.95,-0.08907746735640229,-0.022358813046523693,82.05290258298629
8.96,-0.015418133795124586,0.004842767877183913,83.44552521935319
8.97,-0.07978998616824119,-0.03509775498786172,83.93970601381001
8.98,0.03326107794971981,-0.011950966151152166,83.43494642558805
8.99,0.0976329303228364,0.13503935104310125,81.48013646341705
9.0,0.9024412139727966,0.4834231472790233,79.43616238236854
9.01,0.825899558663469,0.4741644317443395,78.29063014323008
9.02,-0.031110774423396794,0.12752074871174454,77.72919844555204
9.03,-0.16095250650222048,0.05519113763760107,77.95361999899804
9.04,0.040810015861279324,0.07948705783499833,78.6389747093533
9.05,-0.022967071706684102,-0.005581495180483154,79.33490821347371
9.06,0.04488186721963567,0.047656119143948815,80.2786877429486
9.07,-0.050234750466014236,-0.019469568482508883,79.52608212937216
9.08,0.040810015861279324,0.040712082492935946,77.31360297620762
9.09,-0.03284931769999838,0.0007879757901858571,75.6738899426123
9.1,0.06460060806740628,0.05982049540494298,75.14570588248185
9.11,-0.007914947022423008,0.011786804528196778,75.10112382304308
9.12,0.0872016706632269,0.09280056545668021,74.57293976291261
9.13,0.011803793825347606,0.03724827224857728,74.86536784770587
9.14,0.12142352252896337,0.12346595662474648,75.96556239927949
9.15,0.04716942416253249,0.08296728424165253,76.25799048407276
9.16,0.16141001789079984,0.1651465926931192,75.98823124306192
9.17,0.09415584376963324,0.11768746749671685,74.60694302858624
9.18,0.22806942720681325,0.21895877269789502,73.24756802976691
9.19,0.17879545065681568,0.18712783400684552,72.79872492287492
9.2,0.3208527368107084,0.27162182134198315,73.40473867999172
9.21,0.25245478421809336,0.2015904729892151,74.78678252259347
9.22,0.35969545370109646,0.26178854012695546,76.33657580918516
9.23,0.21937671082380533,0.14835285866478312,79.89709553927781
9.24,0.2547423411609902,0.17092508182114882,85.50083372229291
9.25,0.07096001636865945,0.042452195696263045,90.86957155809688
9.26,0.12604438755361494,0.07717237895132738,95.4184528771032
9.27,-0.03165978808969203,-0.010210852947825064,99.0915611979819
9.28,0.05993399190389676,0.041877630015919196,100.63002006268238
9.29,-0.06414309667882692,-0.03104296290086366,100.74260865346841
9.3,0.04835895377283884,0.03145336695825213,98.41754090951784
9.31,-0.06702541842687691,-0.04087624411589134,97.2040021390321
9.32,0.041404780666432495,0.03204434880089152,97.27200867037938
9.33,-0.07109726978523326,-0.04724571508656034,96.94633294803856
9.34,0.04835895377283884,0.026824009190910218,96.68790812891892
9.35,-0.06702541842687691,-0.050134959650575156,95.47436935843318
9.36,0.046620410496237254,0.023360198946551555,93.95857933751513
9.37,-0.06821494803718327,-0.046096583725872636,92.58786991680459
9.38,0.051241275520888835,0.03204434880089152,91.85793314701056
9.39,-0.06762018323203009,-0.04204179163887458,91.71209691867696
9.4,0.051241275520888835,0.03261891448123538,91.86926756890176
9.41,-0.06935872650863167,-0.0478202807669042,92.49870579792706
9.42,0.06460060806740628,0.04130306433557534,93.72282336217793
9.43,-0.07283581306183484,-0.04841126260954359,93.34047553038106
9.44,0.055862140545540416,0.040137516812592096,91.37508677444494
9.45,-0.0687639617034785,-0.03335764178453462,89.12860435560675
9.46,0.06112352151420311,0.04593242210291725,87.20855328723549
9.47,-0.07109726978523326,-0.04841126260954359,85.37766633774174
9.48,0.07210379484010786,0.05982049540494298,82.83951146223639
9.49,-0.01948998515348093,-0.016580323918494077,82.59242106500797
9.5,0.15271730150779192,0.0945406786600073,83.73795330414644
9.51,0.030927769867965048,0.026249443510566364,84.7935657962813
9.52,0.16895895580235934,0.09917003642734921,85.49025492852778
9.53,0.040810015861279324,0.03667370656823343,85.28774659073814
9.54,0.14283505551447764,0.11652191997373361,84.7935657962813
9.55,-0.021823293235235693,0.019879972539897352,83.83920747304127
9.56,0.06807769462060945,0.08006162351534218,83.3110234129108
9.57,-0.07631289961503801,-0.05072594149321455,83.4681940631356
9.58,0.040810015861279324,0.040137516812592096,84.26538173615083
9.59,-0.1116785299522229,-0.05244963853424611,85.31041543452055
9.6,0.0321172994782714,0.03376804584192308,86.16351958886577
9.61,-0.11108376514706973,-0.05824454382457127,85.27641216884692
9.62,0.04428710241448249,0.03956295113224824,83.86112068869761
9.63,-0.0902212458278507,-0.0703925039232699,82.76092613712399
9.64,0.12197253619525861,0.06213517428861393,82.25541092077594
9.65,0.3620287617828512,0.26119755828431607,81.77256454821033
9.66,1.189438108028632,0.6385230486472728,80.13285151461503
9.67,0.3185194287289536,0.2606229926039722,79.81775458603933
9.68,-0.07978998616824119,0.12000214638038781,80.94137360952146
9.69,-0.0844566023317507,0.049396232347275915,81.6713103793155
9.7,0.11675690636545384,0.08411641560234023,81.8284810295403
9.71,-0.04904522085570789,-0.03104296290086366,81.28971817564471
9.72,0.09822769512798958,0.07080290798065836,79.75050368281815
9.73,-0.05485561549066582,-0.022933378726867546,77.47077362643242
9.74,0.10111001687603959,0.06791366341664355,75.4381339672751
9.75,-0.05078376413230947,-0.014840210715166974,75.41546512349268
9.76,0.1190902144472086,0.08933675521232154,76.57233178452236
9.77,-0.031110774423396794,0.003102654673856812,78.34654662456005
9.78,0.13761942568467286,0.10379939419469113,79.53741655126336
9.79,-0.010797268770473005,0.023934764626895408,78.06620858978408
9.8,0.1759131289087657,0.14661274546145603,75.6512210988299
9.81,0.03271206428342457,0.06791366341664355,74.44977237836144
9.82,0.22578187026391644,0.19812666274485644,74.57293976291261
9.83,0.10051525207088641,0.12809531439208838,74.60694302858624
9.84,0.3092776986796505,0.26873257677796836,74.21326077489816
9.85,0.19215478320333312,0.19755209706451257,74.42710353457902
9.86,0.3997277002017909,0.32080464357941707,75.80839174905469
9.87,0.24952671133118545,0.19581198386118548,77.1450979040916
9.88,0.40782565177964564,0.278565857992996,79.29032615403494
9.89,0.17298505602185776,0.11248354404903109,83.41227758180563
9.9,0.272173525065864,0.17381432638516364,88.30874783880911
9.91,0.034999621226321394,0.02162008574322445,93.20597372393867
9.92,0.1666256477206046,0.0945406786600073,95.99121899667244
9.93,-0.04154203408300631,-0.03509775498786172,98.92305612586588
9.94,0.11268505500709751,0.06154419244597454,100.78719071290718
9.95,-0.06473786148398009,-0.04667114940621649,101.96672621771928
9.96,0.10573088190069116,0.05056177987025916,102.17981334927407
9.97,-0.07283581306183484,-0.05072594149321455,99.84341118343228
9.98,0.11039749806420068,0.04882166666693206,97.18208892337576
9.99,-0.07109726978523326,-0.06170835406892993,95.4184528771032
