time_s,ECG1,ECG2,NIBP
0.0,0.14134504130933037,0.002628747058150219,101.86741443371676
0.01,0.06526826297111821,0.06965220307361529,101.85652288065434
0.02,-0.014980223052638984,-0.06914372280324317,101.75529550513293
0.03,-0.06136202759283513,0.0067829349274168066,101.4746778438774
0.04,-0.08096905371489678,-0.09939350190670171,101.37409114794791
0.05,-0.11426686596861078,-0.0003357888577929112,101.68802414798263
0.06,-0.11127082135808299,-0.11659548539306427,101.93468579086706
0.07,-0.1201831059590201,0.010332702852656153,101.85652288065434
0.08,-0.11840064903883268,-0.11422577545378287,101.22801620099298
0.09,-0.1231791505695479,0.007368166936713023,100.50981437846455
0.1,-0.11961423672917305,-0.1195600213090074,100.1843491457755
0.11,-0.14930921052718907,-0.018132598320817206,99.85888391308643
0.12,-0.12791972748494,-0.123714209178274,99.58979848448524
0.13,-0.12139669364936047,0.0038088050441081643,99.65706984163555
0.14,-0.08214471678991402,-0.117190311369726,99.61222227020201
0.15,-0.13030897825029758,-0.019917076250802388,98.81585753746086
0.16,-0.07205676911395967,-0.12015484728566914,97.60369174957168
0.17,-0.0874920875504763,-0.005679628680382955,96.04427762286858
0.18,-0.08870567524081667,-0.11600065941640256,94.24909340634348
0.19,-0.09344625215620875,-0.01041904855894576,92.49875676125191
0.2,-0.09283945831103857,-0.10710705166857316,90.89385438352336
0.21,-0.09818682907160084,-0.00389515075039777,89.58110189970469
0.22,-0.09640437215141341,-0.12311938320161227,88.29077320160278
0.23,-0.09879362291677102,-0.0009306148344546396,87.3822895402778
0.24,-0.10175174291197568,-0.11422577545378287,87.15741100351823
0.25,-0.09166379523602132,0.00855781889003648,86.81016266470431
0.26,-0.10770590751770813,-0.10651222569191143,86.56286034222798
0.27,-0.11840064903883268,0.004998456997431621,86.85501023613784
0.28,-0.1160493228887982,-0.11837036935568396,87.46045245049052
0.29,-0.13683201208587709,-0.027026206068646596,87.4495608974281
0.3,-0.10118287368212862,-0.1100715875845163,87.0119767361552
0.31,-0.14517542745696715,-0.018727424297478933,86.87743402185461
0.32,-0.11661819211864526,-0.13854648272535516,87.0119767361552
0.33,-0.11840064903883268,-0.004489976727059498,87.03440052187197
0.34,-0.09940041676194121,-0.1035476897759683,86.77620664633321
0.35,-0.13266030440033205,-0.009238990572987814,86.28224268097244
0.36,-0.10831270136287832,-0.12667874509421712,85.654376680903
0.37,-0.1225723567243777,-0.00389515075039777,85.03676155430406
0.38,-0.10831270136287832,-0.11600065941640256,84.41978710729705
0.39,-0.1225723567243777,-0.001525440811116368,83.84766023172357
0.4,-0.12139669364936047,-0.12252455722495054,83.3203809275836
0.41,-0.13030897825029758,-0.024656496129365192,82.95006812346101
0.42,-0.1106640275129128,-0.13142775894014544,82.72583026629334
0.43,-0.12731293363976978,-0.016942946367493748,82.08643203356957
0.44,-0.0898813383158339,-0.10947676160785456,81.31185040695327
0.45,-0.11544252904362802,0.00024944315150330547,80.81852712118442
0.46,-0.10235853675714586,-0.12015484728566914,80.22333578030226
0.47,-0.10057607983695845,0.0032235730348119476,79.7972838516837
0.48,-0.041148207625603284,-0.08931024220554887,79.74090404759583
0.49,-0.03936575070541586,0.029319164269003904,79.44939483327788
0.5,-0.004854350761361493,-0.07803733055107256,79.04512601078417
0.51,-0.03519404301987083,0.04059207592348021,78.87726795770439
0.52,-0.02150325688821849,-0.1082871096545311,78.69787767197026
0.53,-0.038152163015075485,0.022795266460455915,78.26029351069737
0.54,-0.05362540606691525,-0.09879867593003999,77.68752595553197
0.55,-0.09283945831103857,0.014486890721922741,77.28389781263019
0.56,-0.09701116599658359,-0.11837036935568396,77.02570393709142
0.57,-0.11900744288400286,-0.01635771435819753,76.78993384726942
0.58,-0.11366007212344059,-0.12430903515493573,76.62207579418963
0.59,-0.1362252182407069,-0.017537772344155475,76.26265454312946
0.6,-0.1201831059590201,-0.1373568307720317,76.0723727043329
0.61,-0.15465658128775134,-0.02940550997529351,75.8699179532901
0.62,-0.1231791505695479,-0.15217951035174734,75.75779902470627
0.63,-0.14456863361179698,-0.03473975583051804,75.78022281042304
0.64,-0.1766528581751706,-0.14032136668797485,75.57840873897214
0.65,-0.20816821350869716,-0.013978410451550618,75.47718136345074
0.66,0.2561049272771419,0.12422268944864612,75.32021486343338
0.67,1.2844687963793158,0.26894768715739087,75.01717341646109
0.68,0.7744206448984507,0.06430836325102525,74.86020691644373
0.69,0.15860074128135754,-0.0021202667877780962,74.87173914909806
0.7,-0.10118287368212862,-0.09167995214483027,74.8493153633813
0.71,-0.1231791505695479,0.014486890721922741,74.74808798785989
0.72,-0.10296533060231605,-0.11778513734638774,74.55716546947143
0.73,-0.11127082135808299,-0.0021202667877780962,74.32139537964943
0.74,-0.09640437215141341,-0.11303612350045943,74.08626596941934
0.75,-0.12613727056475255,-0.001525440811116368,73.85049587959735
0.76,-0.09283945831103857,-0.1100715875845163,73.65957336120887
0.77,-0.11366007212344059,0.00024944315150330547,73.71595316529675
0.78,-0.09522870907639618,-0.1195600213090074,73.59230200405858
0.79,-0.11305327827827041,-0.0133931784422544,73.08744648563538
0.8,-0.0732324321889769,-0.10414251575263003,72.70624212845037
0.81,-0.09583550292156635,-0.005679628680382955,72.53774339577866
0.82,-0.042930664545790705,-0.085750880312944,72.42562446719484
0.83,-0.0803622598697266,0.03049922225496185,72.13347457328497
0.84,-0.047064447616012604,-0.09761861794408204,72.0437794304179
0.85,-0.05480106914193249,0.0269494543297225,72.66139455701683
0.86,-0.013804559977621747,-0.07685727256511461,73.65957336120887
0.87,-0.023285713808405915,0.04177213390943815,75.38748622058368
0.88,0.02127570919627967,-0.06498953493397658,78.77604058218299
0.89,0.03731782147796648,0.06846255112029184,83.6234223745559
0.9,0.12113122134209851,-0.00389515075039777,88.39200057712418
0.91,0.131257093633376,0.12778205134125098,92.18418308162528
0.92,0.2049825458215537,0.047115973732028193,94.82122028191696
0.93,0.21624615657252527,0.17048480008514377,96.30247149840734
0.94,0.26679966879826644,0.08744901253663959,97.46914903527109
0.95,0.2418073473003194,0.1912461454641112,98.58008744763886
0.96,0.20733387197158817,0.045331495802043015,99.61222227020201
0.97,0.12708538594783098,0.11887884962605608,100.22919671720904
0.98,0.06883317681149305,-0.035929407783841495,100.50981437846455
0.99,-0.031022335334325794,0.045331495802043015,100.50981437846455
1.0,-0.054194275296762295,-0.0899050681822106,100.22919671720904
1.01,-0.11426686596861078,0.010332702852656153,100.12861002127954
1.02,-0.10353419983216311,-0.10473734172929176,99.9152637171743
1.03,-0.13861446900606453,0.004403631020769893,99.53341868039738
1.04,-0.1065302444426909,-0.1011779798366869,99.25344169873375
1.05,-0.15822149512812617,0.009747470843359937,99.07341073340771
1.06,-0.12196556287920753,-0.10473734172929176,98.90555268032793
1.07,-0.15765262589827914,0.005593282974093349,98.75947773337299
1.08,-0.13565634901085985,-0.10295286379930657,98.60251123335563
1.09,-0.1558701689780917,0.010332702852656153,98.287937553729
1.1,-0.1297021844051274,-0.10473734172929176,97.90673319654397
1.11,-0.14517542745696715,0.01152235480597961,97.7158106781555
1.12,-0.11244648443310022,-0.10176321184598311,97.05398865971496
1.13,-0.12674406440992275,0.016271368651907925,95.59516122894135
1.14,-0.1106640275129128,-0.09820384995337826,94.04663865530067
1.15,-0.12196556287920753,0.016271368651907925,92.39752938573051
1.16,-0.11009515828306575,-0.12430903515493573,90.75931166922277
1.17,-0.13861446900606453,-0.001525440811116368,89.18836530986533
1.18,-0.11426686596861078,-0.11659548539306427,87.75260234440039
1.19,-0.14456863361179698,0.012117180782641339,86.48469743201525
1.2,-0.12613727056475255,-0.10414251575263003,85.78891939520359
1.21,-0.16656491049921623,0.0032235730348119476,85.6204206625319
1.22,-0.11244648443310022,-0.08694053226626747,85.27253164412606
1.23,-0.1701298243395911,0.0038088050441081643,84.81252369713641
1.24,-0.1297021844051274,-0.10414251575263003,84.72282855426934
1.25,-0.1623932028136712,0.007962992913374751,84.92464262572024
1.26,-0.1225723567243777,-0.09642896599075858,85.10467359104628
1.27,-0.15169846129254666,0.009747470843359937,85.17194494819657
1.28,-0.11961423672917305,-0.08278634439700087,85.03676155430406
1.29,-0.15943508281846655,0.024570150423075587,84.54343826853521
1.3,-0.14930921052718907,-0.10058315386002517,84.24039682156292
1.31,-0.1606107458934838,0.01745142663786587,84.17312546441262
1.32,-0.12909539055995722,-0.07803733055107256,83.9264638215282
1.33,-0.17487040125498318,0.007368166936713023,83.65673771333509
1.34,-0.15526337513292152,-0.10651222569191143,83.36522849901714
1.35,-0.18082456586071563,0.018046252614527598,82.78156939078931
1.36,-0.1600039520483136,-0.09761861794408204,82.0300522294817
1.37,-0.18321381662607325,-0.009833816549649542,81.50277292534174
1.38,-0.15465658128775134,-0.10235803782264484,80.97549362120178
1.39,-0.19686667814240244,0.006188108950755077,80.2009119945855
1.4,-0.15882828897329637,-0.0786321565277343,79.67363269044553
1.41,-0.1939085581471978,0.0020339210814884906,79.4942424047114
1.42,-0.16417565973385864,-0.10235803782264484,79.33727590469404
1.43,-0.1861719366212779,0.0038088050441081643,79.06819047609285
1.44,-0.1558701689780917,-0.09702379196742031,78.60754184951129
1.45,-0.14752675360700163,0.0269494543297225,78.11421856374243
1.46,-0.12374801979939495,-0.07803733055107256,77.68752595553197
1.47,-0.13087784748014464,0.034058584147566705,77.27236557997584
1.48,-0.08510283678511868,-0.05490627523282374,76.99238859831222
1.49,-0.14752675360700163,0.04414184384871955,76.90205277585325
1.5,-0.09583550292156635,-0.06914372280324317,76.86873743707406
1.51,-0.1344427613205195,0.04414184384871955,76.58811977581853
1.52,-0.13387389209067244,-0.07033337475656663,75.91476552472363
1.53,-0.1843894797010905,0.03703271403087535,75.48871359610509
1.54,-0.148740341297342,-0.09167995214483027,75.25294350628309
1.55,-0.2052100935134925,0.015676542675246197,74.77051177357666
1.56,-0.1725190751049487,-0.09405925605147718,74.5795892551882
1.57,-0.2194697488749919,0.0038088050441081643,74.63596905927606
1.58,-0.18260702278090304,-0.1059173997152497,74.69170818377202
1.59,-0.2218589996403495,-0.018727424297478933,74.79293555929343
1.6,-0.20399650582315212,-0.1077018776452349,74.74808798785989
1.61,-0.2521607672835357,-0.03177521991457491,74.46747032660436
1.62,-0.2854585795372497,-0.12667874509421712,74.05230995104824
1.63,-0.2735502503257848,0.06253347928840558,73.74926850407594
1.64,0.41895322547469077,0.20192423114192576,73.56987821834181
1.65,1.4598322176334997,0.2066636510204886,73.40137948567012
1.66,0.5128924976301003,0.025759802376399046,73.33410812851982
1.67,-0.04410632762080795,0.020415962553809,73.39048793260768
1.68,-0.18677873046644808,-0.059655289078752054,73.16625007544002
1.69,-0.2331226103913211,0.034058584147566705,72.97532755705156
1.7,-0.19808026583274282,-0.08871541622888714,72.72866591416714
1.71,-0.22720637040091177,0.016866194628569652,72.57105873455787
1.72,-0.21055746427405478,-0.07566762061179116,72.49289582434514
1.73,-0.25333643035855297,0.005593282974093349,72.12258302022254
1.74,-0.20756141966352698,-0.07507279463512943,71.95408428755084
1.75,-0.2289888273210992,0.025759802376399046,72.16743059165607
1.76,-0.20877500735386736,-0.07151343274252457,72.21227816308961
1.77,-0.2259927827105714,0.03287852616160876,71.92076894877165
1.78,-0.18677873046644808,-0.07507279463512943,71.50560857321553
1.79,-0.24203489499225822,0.015081716698584468,71.18014334052646
1.8,-0.1956910150673852,-0.06558436091063831,70.96679703642123
1.81,-0.22125220579517932,0.029319164269003904,70.88799344661659
1.82,-0.19212610122701035,-0.07507279463512943,70.88799344661659
1.83,-0.22064541195000914,0.02101078853047073,71.0231768405091
1.84,-0.16121753973865396,-0.04838237742427575,71.9092367161173
1.85,-0.165389247424199,0.05245021958725273,74.16442887963207
1.86,-0.10118287368212862,-0.01635771435819753,77.93482827800831
1.87,-0.10296533060231605,0.06965220307361529,82.89368831937314
1.88,-0.022716844578558864,0.018046252614527598,87.40471332599456
1.89,-0.02923987841413837,0.13252147121981378,91.0059733121072
1.9,0.057531641445198324,0.06253347928840558,93.60905449402777
1.91,0.059314098365385745,0.1687099161225241,95.14668551460602
1.92,0.10865402290078656,0.09574779430780725,96.4254819800536
1.93,0.06231014297591354,0.16040154038399093,97.87277717817287
1.94,0.046836899924073784,0.028724338292342173,98.70309792928512
1.95,-0.06492694143320997,0.10405617004634042,98.84917287624006
1.96,-0.11840064903883268,-0.041263653639066034,98.75947773337299
1.97,-0.2034276365933051,0.04117730793277642,98.6249350190724
1.98,-0.2349050673115085,-0.08634570628960574,98.55766366192209
1.99,-0.2854585795372497,0.013892064745261012,98.22066619657869
2.0,-0.2592905949642854,-0.10058315386002517,97.8843094108272
2.01,-0.3234969687063558,-0.01635771435819753,97.39034544546645
2.02,-0.2854585795372497,-0.09761861794408204,97.24491117810342
2.03,-0.3389322871428724,-0.011013874535607487,97.49157282098784
2.04,-0.2979357779785617,-0.09049989415887233,97.51399660670461
2.05,-0.32171451178616833,-0.009238990572987814,97.17763982095312
2.06,-0.2979357779785617,-0.09939350190670171,96.71763187396347
2.07,-0.3460621148236221,-0.02347643814340725,96.31336305146976
2.08,-0.2961533210583742,-0.1100715875845163,95.90973490856798
2.09,-0.33419171022748034,-0.02584614808268865,95.36003181871125
2.1,-0.30863051949968623,-0.09583414001409686,94.50728728188224
2.11,-0.31693601025545315,0.0067829349274168066,93.42966420829366
2.12,-0.30388994258429414,-0.11363094947712114,91.78055493872348
2.13,-0.3460621148236221,0.002628747058150219,89.78355665074749
2.14,-0.30506560565931135,-0.092274778121492,87.85318904032988
2.15,-0.3448864517486049,-0.016942946367493748,86.38347005649385
2.16,-0.30567239950448155,-0.07566762061179116,85.418606591081
2.17,-0.3395390809880426,0.014486890721922741,84.71193700120692
2.18,-0.31280222718523126,-0.08278634439700087,84.25192905421726
2.19,-0.3680583917110414,-0.0009306148344546396,83.95977916030739
2.2,-0.3157603471804359,-0.08041663445771947,83.91493158887386
2.21,-0.3716233055514162,-0.002715092764439825,84.10585410726232
2.22,-0.3395390809880426,-0.0899050681822106,84.24039682156292
2.23,-0.3680583917110414,-0.0133931784422544,84.20708148278372
2.24,-0.3318024594621227,-0.08278634439700087,84.27435283993402
2.25,-0.38770334244842614,-0.009238990572987814,84.21797303584616
2.26,-0.3460621148236221,-0.09109472013553405,83.95977916030739
2.27,-0.41148207625603284,-0.013978410451550618,83.43249985616744
2.28,-0.34966495327932007,-0.0881205902522254,83.30884869492927
2.29,-0.3918371255186481,-0.009238990572987814,83.71311751742296
2.3,-0.34071474406305985,-0.09286960409815373,83.6234223745559
2.31,-0.40670357472531765,-0.015168062404874075,82.81552540916041
2.32,-0.35262307327452475,-0.0810114604343812,81.86155349680999
2.33,-0.4096996193358454,0.00855781889003648,81.14335167428158
2.34,-0.362142151720632,-0.08397599635032434,80.73972353137978
2.35,-0.3977912901243805,0.0014390951048267623,80.35851917419477
2.36,-0.35262307327452475,-0.06439470895731486,79.88697899455077
2.37,-0.40848603164550507,-0.008644164596326085,79.43786260062353
2.38,-0.34727570251396245,-0.07685727256511461,79.01181067200498
2.39,-0.41148207625603284,-0.001525440811116368,78.6754538862535
2.4,-0.3555811932697294,-0.10235803782264484,78.21544593926383
2.41,-0.40848603164550507,0.0020339210814884906,77.63178683103601
2.42,-0.32823754562174784,-0.06677401286396177,77.19420266976311
2.43,-0.39422637628400564,0.005593282974093349,76.86873743707406
2.44,-0.29137481952765903,-0.05609592718614719,76.55480443703934
2.45,-0.3401458748332128,0.034653410124228436,76.01599290024504
2.46,-0.2895923626074716,-0.05253656529354234,75.78022281042304
2.47,-0.3555811932697294,0.02753468633901872,75.82507038185658
2.48,-0.29137481952765903,-0.05016685535426093,75.79175504307737
2.49,-0.3633178147956493,0.015081716698584468,75.53356116753861
2.5,-0.34727570251396245,-0.06143017304137172,75.15171613076168
2.51,-0.4548678361857012,-0.004489976727059498,74.82689157766453
2.52,-0.3716233055514162,-0.0810114604343812,74.65839284499283
2.53,-0.44239063774438925,-0.0003357888577929112,74.46747032660436
2.54,-0.407917162415658,-0.08397599635032434,74.25412402249913
2.55,-0.46795182847218336,-0.025251322106026923,74.13111354085287
2.56,-0.40313866088494277,-0.08694053226626747,73.95172325511875
2.57,-0.44356630081940646,-0.02881068399863178,73.65957336120887
2.58,-0.3954020393590229,-0.09109472013553405,73.45775928975799
2.59,-0.49229943150963706,-0.012798352465592673,73.36806414689092
2.6,-0.5321582022142537,-0.10888193563119283,73.28926055708628
2.61,-0.3478445717438095,0.12896210932720892,73.13229405706892
2.62,0.6062249759403396,0.16811509014586237,73.07655493257296
2.63,1.1061472551299272,0.14082984695834697,73.27836900402386
2.64,0.1883336396946967,-0.062024999018033454,73.15471784278569
2.65,-0.3716233055514162,-0.019917076250802388,72.73955746722956
2.66,-0.38292484091771095,-0.027621032045308323,72.3807768957613
2.67,-0.437612136213674,0.018046252614527598,72.10015923450578
2.68,-0.38470729783789837,-0.05313139127020406,71.87592137733812
2.69,-0.44239063774438925,0.022795266460455915,71.81954157325025
2.7,-0.40313866088494277,-0.07329791067250976,71.9431927344884
2.71,-0.4447419638944237,0.010927528829317882,71.87592137733812
2.72,-0.3817491778426937,-0.05490627523282374,71.65104284057854
2.73,-0.4061347054954706,0.025164976399737315,71.44922876912766
2.74,-0.37579501323696124,-0.04778755144761402,71.19103489358889
2.75,-0.4150469900964077,0.013306832735964795,70.80983053640387
2.76,-0.3490581594341499,-0.05016685535426093,70.57406044658187
2.77,-0.42274568700700443,0.0067829349274168066,70.46194151799804
2.78,-0.3347985040726505,-0.04541784150833262,70.39467016084774
2.79,-0.3674895224811943,0.05778446544247726,70.3158665710431
2.8,-0.3211077179409982,-0.035929407783841495,70.3158665710431
2.81,-0.36153535787546187,0.045331495802043015,70.43951773228127
2.82,-0.2688096734103927,0.0008442691281650338,71.0564921792883
2.83,-0.3021074856641067,0.083294824667373,72.62743853864573
2.84,-0.2188629550298217,-0.0021202667877780962,76.06084047167857
2.85,-0.23729431807686613,0.10939041590156495,81.04276497835208
2.86,-0.11783177980898563,0.04889085769464787,86.25981889525568
2.87,-0.12496160748973532,0.1331162971964755,90.22114081202038
2.88,-0.014373429207468797,0.11947367560271781,92.969656261304
2.89,-0.05658352606211991,0.1758190459403683,94.78726426354586
2.9,0.04387877992886913,0.11413942974749328,95.87577889019687
2.91,-0.047064447616012604,0.16752026416920063,96.70609964130912
2.92,-0.03875895686024568,0.06549801520434871,97.11036846380283
2.93,-0.19212610122701035,0.10167686613969351,97.17763982095312
2.94,-0.20164517967311765,-0.00389515075039777,97.34549787403292
2.95,-0.32171451178616833,0.03287852616160876,97.52552883935896
2.96,-0.29493973336803386,-0.03177521991457491,97.52552883935896
2.97,-0.3864897547580858,0.013892064745261012,97.34549787403292
2.98,-0.3460621148236221,-0.05490627523282374,97.02003264134385
2.99,-0.40135620396475535,0.009152644866698208,96.7957947841762
3.0,-0.35084061635433733,-0.05550110120948547,96.4594379984247
3.01,-0.39661562704936326,0.012712006759303066,96.13397276573563
3.02,-0.35736365018991684,-0.07685727256511461,95.71881239017951
3.03,-0.4025697916550957,0.009747470843359937,95.15757706766846
3.04,-0.3657070655610069,-0.06321465097135691,94.65272154924526
3.05,-0.4073103685704878,0.002628747058150219,94.31636476349377
3.06,-0.3264550887015604,-0.036524233760503226,93.78908545935381
3.07,-0.3864897547580858,-0.004489976727059498,93.12662276132136
3.08,-0.31871846717564056,-0.04245330559238949,92.0944879387582
3.09,-0.39305071320898843,0.01864107859118933,90.54596536511754
3.1,-0.3199320548659809,-0.05016685535426093,88.79562872002597
3.11,-0.3835316347628811,0.025164976399737315,87.00044450350087
3.12,-0.30980618257470344,-0.05313139127020406,85.64284444824867
3.13,-0.3936195824388355,0.0038088050441081643,84.72282855426934
3.14,-0.32945113331208825,-0.04541784150833262,84.08343032154556
3.15,-0.39422637628400564,0.0008442691281650338,83.61189014190157
3.16,-0.32706188254673063,-0.06143017304137172,83.27553335615008
3.17,-0.3900546685984606,0.010927528829317882,83.14099064184947
3.18,-0.32588621947171337,-0.05372621724686579,83.14099064184947
3.19,-0.3906614624436308,0.022795266460455915,83.14099064184947
3.2,-0.3330160471524631,-0.03711905973716496,83.36522849901714
3.21,-0.37283689324175656,0.01152235480597961,83.7240090704854
3.22,-0.32945113331208825,-0.05787081114876687,83.80281266029003
3.23,-0.40196299780992556,0.004998456997431621,83.78038887457326
3.24,-0.3395390809880426,-0.05550110120948547,83.73554130313973
3.25,-0.3960088332041931,-0.0009306148344546396,83.54461878475126
3.26,-0.32171451178616833,-0.06558436091063831,83.185838213283
3.27,-0.3740125563167738,0.014486890721922741,82.81552540916041
3.28,-0.33062679638710546,-0.04601266748499434,82.42278881932106
3.29,-0.3686651855562115,0.009747470843359937,82.14217115806552
3.3,-0.32766867639190084,-0.04778755144761402,81.53608826412093
3.31,-0.3841384286080513,0.004998456997431621,80.68334372729191
3.32,-0.30506560565931135,-0.0406688276624043,79.85302297617966
3.33,-0.37640180708213145,0.00855781889003648,79.34816745775647
3.34,-0.30506560565931135,-0.04185847961572776,79.0227022250674
3.35,-0.3686651855562115,0.006188108950755077,78.70876922503268
3.36,-0.29137481952765903,-0.03237004589123664,78.4396837964315
3.37,-0.3680583917110414,0.014486890721922741,78.12511011680486
3.38,-0.29554652721320407,-0.0406688276624043,77.77786177799094
3.39,-0.3389322871428724,0.0269494543297225,77.38512518815158
3.4,-0.2527675611287059,-0.019917076250802388,76.93600879422435
3.41,-0.2961533210583742,0.04296178586276161,76.4760008472347
3.42,-0.21351558426925943,0.012117180782641339,76.13964406148321
3.43,-0.2729813810959377,0.04414184384871955,75.8699179532901
3.44,-0.23016449039611644,-0.012798352465592673,75.82507038185658
3.45,-0.29554652721320407,0.03584306207755189,75.95961309615717
3.46,-0.24681339652297343,-0.017537772344155475,75.65721232877678
3.47,-0.3448864517486049,0.014486890721922741,74.96143429196512
3.48,-0.2967601149035444,-0.046607493461656074,74.53474168375466
3.49,-0.362142151720632,0.009747470843359937,74.42262275517083
3.5,-0.30863051949968623,-0.048977203400937475,74.3777751837373
3.51,-0.3740125563167738,0.0032235730348119476,74.2432324694367
3.52,-0.30745485642466897,-0.062024999018033454,74.09715752248177
3.53,-0.3651002717158367,0.005593282974093349,73.87291966531411
3.54,-0.3044588118141412,-0.06795407084991971,73.77169228979271
3.55,-0.3799667209225063,-0.009833816549649542,73.74926850407594
3.56,-0.37935992707733607,-0.05016685535426093,73.51413909384586
3.57,-0.47447486230776287,-0.0003357888577929112,73.08744648563538
3.58,0.04448557377403931,0.17048480008514377,72.85167639581339
3.59,1.01816214758025,0.23988756000725575,72.8183610570342
3.6,0.7738517756686037,0.11887884962605608,72.8856324141845
3.61,0.023058166116467094,-0.0068596866663409,72.8856324141845
3.62,-0.2444241457576158,-0.03296487186789837,72.85167639581339
3.63,-0.3181495979457935,0.022795266460455915,72.69470989579602
3.64,-0.28663424261226694,-0.030585567961251454,72.47047203862837
3.65,-0.32945113331208825,-0.0021202667877780962,72.20138661002717
3.66,-0.28663424261226694,-0.05550110120948547,71.95408428755084
3.67,-0.33419171022748034,-0.014573236428212346,71.67346662629531
3.68,-0.26820287956522254,-0.051941739316880606,71.59530371608258
3.69,-0.30506560565931135,-0.014573236428212346,71.55045614464905
3.7,-0.27176779340559737,-0.06617918688730004,71.44922876912766
3.71,-0.31280222718523126,-0.01635771435819753,71.21345867930566
3.72,-0.24025243807207078,-0.04778755144761402,70.9559054833588
3.73,-0.290805950297812,0.007962992913374751,70.73102694659923
3.74,-0.2188629550298217,-0.02584614808268865,70.49589753636914
3.75,-0.2705921303305801,0.007368166936713023,70.22617142817604
3.76,-0.18021777201554545,-0.030585567961251454,70.18132385674251
3.77,-0.25811493188926815,0.012117180782641339,70.4170939465645
3.78,-0.15765262589827914,-0.011608700512269216,71.16861110787212
3.79,-0.20399650582315212,0.04414184384871955,72.89652396724692
3.8,-0.11961423672917305,0.0038088050441081643,76.18449163291673
3.81,-0.14039692592625194,0.055414755503195856,80.90822226405149
3.82,-0.037583293785228435,0.0269494543297225,85.71011580539896
3.83,-0.042930664545790705,0.10049680815373556,89.59263413235902
3.84,0.06526826297111821,0.11235495181750808,92.41995317144728
3.85,0.012363424595342554,0.12125815353270299,94.4617990308568
3.86,0.12829897363817136,0.11710396566343641,95.99943005143504
3.87,0.08191716909797521,0.17048480008514377,96.84064235560972
3.88,0.1050891090604117,0.10167686613969351,97.34549787403292
3.89,-0.03162912917949598,0.09218843241520239,97.81703805367691
3.9,-0.054194275296762295,0.016271368651907925,98.05280814349891
3.91,-0.17547719510015336,0.039997249946818476,97.83946183939368
3.92,-0.1796489027856984,-0.016942946367493748,97.7497666965266
3.93,-0.2723745872507676,0.00855781889003648,97.72734291080984
3.94,-0.21290879042408925,-0.033559697844560095,97.7158106781555
3.95,-0.2991114410535789,-0.016942946367493748,97.7158106781555
3.96,-0.23846998115188336,-0.0406688276624043,97.58126796385491
3.97,-0.2997182348987491,-0.011608700512269216,97.35703010668725
3.98,-0.24324848268259858,-0.046607493461656074,97.02003264134385
3.99,-0.30863051949968623,-0.02940550997529351,96.74005565968022
4.0,-0.24324848268259858,-0.051346913340218875,96.36974285555763
4.01,-0.29137481952765903,-0.016942946367493748,95.90973490856798
4.02,-0.22777523963075882,-0.030000335951955236,95.59516122894135
4.03,-0.2830693287718921,-0.012798352465592673,95.38245560442802
4.04,-0.2028208427481349,-0.03533458180717977,94.93333921050079
4.05,-0.2788976210863471,-0.02881068399863178,94.04663865530067
4.06,-0.20699255043367992,-0.026440974059350378,92.61087568983574
4.07,-0.2895923626074716,-0.03414492985385631,90.8381152590274
4.08,-0.22481711963555417,-0.05016685535426093,88.87443230983061
4.09,-0.2777219580113298,-0.01041904855894576,87.00044450350087
4.1,-0.23077128424128662,-0.049572029377599205,85.87861453807066
4.11,-0.2943708641381868,-0.02288161216674552,85.3513352339307
4.12,-0.2331226103913211,-0.06380947694801864,84.71193700120692
4.13,-0.3008938979737663,-0.02288161216674552,84.08343032154556
4.14,-0.22777523963075882,-0.04838237742427575,83.5894663561848
4.15,-0.2991114410535789,-0.026440974059350378,83.3876522847339
4.16,-0.22364145656053694,-0.041263653639066034,83.37676073167147
4.17,-0.29137481952765903,-0.003309918741101553,83.44403208882177
4.18,-0.23016449039611644,-0.054311449256162006,83.57857480312236
4.19,-0.2919816133728292,-0.03473975583051804,83.73554130313973
4.2,-0.2265995765557416,-0.030000335951955236,83.71311751742296
4.21,-0.2842449918469093,-0.006274454657044684,83.6234223745559
4.22,-0.21173312734907201,-0.030585567961251454,83.39918451738824
4.23,-0.28367612261706227,-0.024656496129365192,83.01733948061131
4.24,-0.22542391348072435,-0.03711905973716496,82.59128755199275
4.25,-0.28841669953245436,-0.016942946367493748,82.20944251521583
4.26,-0.2218589996403495,-0.05016685535426093,81.91793330089786
4.27,-0.29019915645264177,-0.03533458180717977,81.61489185392557
4.28,-0.2028208427481349,-0.0382991177231229,81.06518876406885
4.29,-0.2979357779785617,-0.022286786190083792,80.4366820844075
4.3,-0.23729431807686613,-0.054311449256162006,79.74090404759583
4.31,-0.28841669953245436,-0.024656496129365192,79.00027843935065
4.32,-0.2194697488749919,-0.047202319438317805,78.31603263519332
4.33,-0.29376407029301665,-0.04245330559238949,77.93482827800831
4.34,-0.22364145656053694,-0.046607493461656074,77.86755692085801
4.35,-0.27950441493151723,-0.018132598320817206,77.60936304531924
4.36,-0.2164737042644641,-0.03414492985385631,77.20509422282555
4.37,-0.257508138044098,-0.013978410451550618,76.78993384726942
4.38,-0.17725965202034077,-0.024656496129365192,76.31903434721734
4.39,-0.2093438765837144,0.014486890721922741,75.83660261451091
4.4,-0.13982805669640488,0.0020339210814884906,75.53356116753861
4.41,-0.23077128424128662,0.0038088050441081643,75.32021486343338
4.42,-0.15169846129254666,-0.027621032045308323,75.15171613076168
4.43,-0.2188629550298217,0.0038088050441081643,74.98385807768189
4.44,-0.16478245357902882,-0.008049338619664358,74.8153593450102
4.45,-0.28485178569207953,-0.013978410451550618,74.55716546947143
4.46,-0.228382033475929,-0.05313139127020406,74.11958130819853
4.47,-0.3092373133448564,-0.03711905973716496,73.49171530812909
4.48,-0.24203489499225822,-0.06143017304137172,73.32321657545738
4.49,-0.31397789026024847,-0.049572029377599205,73.46865084282041
4.5,-0.23668752423169595,-0.05016685535426093,73.72684471835917
4.51,-0.30684806257949876,-0.03533458180717977,73.63714957549212
4.52,-0.22481711963555417,-0.05372621724686579,73.24441298565276
4.53,-0.30863051949968623,-0.04364295754571294,72.87410018153015
4.54,-0.3222833810160154,-0.085750880312944,72.4480482529116
4.55,-0.3252794256265432,0.02101078853047073,72.03288787735548
4.56,0.43442646852653055,0.2582696014795763,71.99893185898438
4.57,1.4491374761123752,0.15210275861282327,72.18985437737284
4.58,0.507545126869538,0.05837929141913899,72.35835311004453
4.59,-0.09462191523122598,-0.03296487186789837,72.47047203862837
4.6,-0.18321381662607325,-0.001525440811116368,72.3807768957613
4.61,-0.27476383801612514,-0.0133931784422544,72.05531166307225
4.62,-0.21412237811442963,-0.03473975583051804,71.61772750179935
4.63,-0.2705921303305801,-0.02881068399863178,71.41591343034845
4.64,-0.2022140489029647,-0.04778755144761402,71.30315382217272
4.65,-0.2705921303305801,-0.047202319438317805,71.19103489358889
4.66,-0.20638575658850974,-0.03473975583051804,71.0904481976594
4.67,-0.2640311718796775,-0.026440974059350378,71.04560062622586
4.68,-0.2022140489029647,-0.030585567961251454,70.88799344661659
4.69,-0.25633247496908074,-0.011013874535607487,70.77587451803277
4.7,-0.17430153202513612,-0.030000335951955236,70.753450732316
4.71,-0.2379011119220363,-0.019917076250802388,70.49589753636914
4.72,-0.15882828897329637,-0.017537772344155475,70.19285608939684
4.73,-0.2361186550018489,-0.027621032045308323,70.09162871387544
4.74,-0.15109166744737648,-0.012203526488930944,70.20374764245928
4.75,-0.20577896274333957,-0.02584614808268865,70.753450732316
4.76,-0.1225723567243777,-0.0074545126430026285,71.53892391199471
4.77,-0.16178640896850102,0.00855781889003648,73.30079278974063
4.78,-0.0667093983533974,0.025759802376399046,76.96996481259545
4.79,-0.09640437215141341,0.050675335624633056,82.09732358663199
4.8,0.028405536877029364,0.07202191301289669,86.9447053790049
4.81,0.01653513228088759,0.07736575283548675,90.59081293655107
4.82,0.11699743827187661,0.10167686613969351,93.25027392255953
4.83,0.07478734141722551,0.12006850157937954,95.11272949623492
4.84,0.17107793972266952,0.13608083311241864,96.17882033716917
4.85,0.09500116138445736,0.12778205134125098,96.86306614132648
4.86,0.1193487644219111,0.10346134406967869,97.28975874953696
4.87,-0.038152163015075485,0.0494856836713096,97.52552883935896
4.88,-0.03162912917949598,0.03880759799349502,97.67096310672197
4.89,-0.16178640896850102,-0.002715092764439825,97.66007155365955
4.9,-0.1362252182407069,-0.015168062404874075,97.70491912509308
4.91,-0.23372940423649127,-0.026440974059350378,97.7497666965266
4.92,-0.1814313597058858,-0.041263653639066034,97.51399660670461
4.93,-0.2688096734103927,-0.05016685535426093,97.17763982095312
4.94,-0.20164517967311765,-0.0382991177231229,96.70609964130912
4.95,-0.274157044170955,-0.04482301553167089,96.24609169431947
4.96,-0.1956910150673852,-0.03237004589123664,95.99943005143504
4.97,-0.27176779340559737,-0.04008359565310809,95.88731112285122
4.98,-0.2034276365933051,-0.04422818955500916,95.79761597998414
4.99,-0.2777219580113298,-0.05906046310209032,95.44972696157832
5.0,-0.19629780891255538,-0.04422818955500916,95.05699037173896
5.01,-0.2515539734383655,-0.04838237742427575,94.55213485331576
5.02,-0.19330176430202758,-0.05669075316280892,93.73270565526595
5.03,-0.2474201903681436,-0.05016685535426093,92.4648007428808
5.04,-0.17725965202034077,-0.05728557913947065,90.99508175904477
5.05,-0.24859585344316085,-0.04422818955500916,89.32290802416593
5.06,-0.18321381662607325,-0.02881068399863178,87.6853309872501
5.07,-0.2444241457576158,-0.04245330559238949,86.13680841360942
5.08,-0.16356886588868844,-0.03533458180717977,84.85737126856993
5.09,-0.25333643035855297,-0.05490627523282374,83.93735537459062
5.1,-0.18082456586071563,-0.03711905973716496,83.21915355206221
5.11,-0.257508138044098,-0.05490627523282374,82.56886376627598
5.12,-0.19330176430202758,-0.054311449256162006,81.98520465804816
5.13,-0.2474201903681436,-0.051941739316880606,81.63731563964234
5.14,-0.18200022893573287,-0.038893943699784626,81.86155349680999
5.15,-0.2545500180488933,-0.04778755144761402,82.19855096215339
5.16,-0.17904210894052822,-0.033559697844560095,82.36640901523319
5.17,-0.26285550880466024,-0.047202319438317805,82.34398522951642
5.18,-0.19034364430682293,-0.051941739316880606,82.27671387236612
5.19,-0.2640311718796775,-0.05550110120948547,82.27671387236612
5.2,-0.1796489027856984,-0.051941739316880606,82.0640082478528
5.21,-0.2604662580393026,-0.07033337475656663,81.6597394253591
5.22,-0.1861719366212779,-0.03948876967644636,81.33427419267004
5.23,-0.2509851042085185,-0.06025011505541378,81.12092788856481
5.24,-0.178435315095358,-0.0406688276624043,80.82941867424685
5.25,-0.2474201903681436,-0.049572029377599205,80.29060713745255
5.26,-0.18973685046165276,-0.04304813156905121,79.58393754757847
5.27,-0.2539432242037231,-0.06617918688730004,78.93300708220035
5.28,-0.18913005661648255,-0.05313139127020406,78.31603263519332
5.29,-0.26998533648540995,-0.07389273664917148,77.7323735269655
5.3,-0.19686667814240244,-0.05787081114876687,77.30632159834694
5.31,-0.26642042264503507,-0.07389273664917148,76.98085636565789
5.32,-0.18734759969629514,-0.04008359565310809,76.58811977581853
5.33,-0.26937854264023975,-0.06143017304137172,76.1729594002624
5.34,-0.18200022893573287,-0.04422818955500916,75.7353752389895
5.35,-0.24681339652297343,-0.05846563712542859,75.46628981038832
5.36,-0.14456863361179698,-0.03177521991457491,75.14082457769925
5.37,-0.19508422122221503,-0.02940550997529351,74.64686061233849
5.38,-0.1160493228887982,-0.011608700512269216,74.43415498782517
5.39,-0.1861719366212779,-0.02288161216674552,74.43415498782517
5.4,-0.13565634901085985,-0.012203526488930944,74.35535139802053
5.41,-0.19451535199236797,-0.03473975583051804,74.11958130819853
5.42,-0.1392212628512347,-0.020502308260098606,73.81653986122625
5.43,-0.2586838011191152,-0.051346913340218875,73.52503064690828
5.44,-0.20699255043367992,-0.03533458180717977,73.24441298565276
5.45,-0.26524475957001786,-0.07270308469584803,72.97532755705156
5.46,-0.2123399211942422,-0.06143017304137172,72.6838183427336
5.47,-0.2854585795372497,-0.059655289078752054,72.3807768957613
5.48,-0.2093438765837144,-0.05669075316280892,72.32439709167343
5.49,-0.28724103645743715,-0.07270308469584803,72.42562446719484
5.5,-0.20699255043367992,-0.04838237742427575,72.35835311004453
5.51,-0.29315727644784645,-0.0810114604343812,72.13347457328497
5.52,-0.24146602576241116,-0.05313139127020406,71.78622623447104
5.53,-0.3817491778426937,-0.08041663445771947,71.51650012627795
5.54,-0.10414099367733329,0.08862907052259754,71.21345867930566
5.55,0.6888247881141313,0.220901098590908,70.9559054833588
5.56,1.209567681116121,0.14794857074355666,71.01164460785476
5.57,0.30722730873273013,-0.027026206068646596,71.22499091195999
5.58,-0.10531665675235052,-0.024656496129365192,71.33710984054382
5.59,-0.24681339652297343,-0.011608700512269216,71.19103489358889
5.6,-0.2034276365933051,-0.02821585802197005,70.87710189355417
5.61,-0.2729813810959377,-0.05372621724686579,70.64133180373217
5.62,-0.19091251353667,-0.03533458180717977,70.50678908943156
5.63,-0.2705921303305801,-0.05906046310209032,70.36071414247664
5.64,-0.1939085581471978,-0.04838237742427575,70.19285608939684
5.65,-0.2551188872787404,-0.054311449256162006,70.05831337509625
5.66,-0.18556514277610772,-0.015762888381535802,69.93466221385808
5.67,-0.2444241457576158,-0.027026206068646596,69.78858726690315
5.68,-0.1725190751049487,-0.02288161216674552,69.55281717708115
5.69,-0.23729431807686613,-0.026440974059350378,69.2613079627632
5.7,-0.15943508281846655,-0.008049338619664358,69.04796165865795
5.71,-0.2379011119220363,-0.04482301553167089,68.9249511770117
5.72,-0.15230525513771687,-0.01932225027414066,69.08191767702907
5.73,-0.20638575658850974,-0.018132598320817206,69.4970780525852
5.74,-0.1231791505695479,0.0008442691281650338,69.91223842814132
5.75,-0.18677873046644808,-0.02584614808268865,70.92194946498769
5.76,-0.0874920875504763,0.032283700184947035,73.00864289583076
5.77,-0.12791972748494,0.018046252614527598,76.85720520441971
5.78,-0.0018962307661568333,0.0809251147280916,81.97367242539383
5.79,-0.025674964573763524,0.06846255112029184,86.60770791366151
5.8,0.09200511677392956,0.10702070596228355,90.09748965078221
5.81,0.05518031529516385,0.10523622803229837,92.35268181429697
5.82,0.16811981972746484,0.1615911923373144,93.90120438793765
5.83,0.10630269675075207,0.12778205134125098,94.94487144315514
5.84,0.15086411975543768,0.14556926683690977,95.39334715749045
5.85,0.03970707224332409,0.08625936058331612,95.57273744322458
5.86,0.01831758920107501,0.06846255112029184,95.89820267591364
5.87,-0.11483573519845783,0.00855781889003648,96.21277635554027
5.88,-0.10770590751770813,0.01745142663786587,96.32489528412411
5.89,-0.21708049810963428,-0.027621032045308323,96.2236679086027
5.9,-0.17547719510015336,-0.011608700512269216,95.79761597998414
5.91,-0.26642042264503507,-0.06439470895731486,95.23638065747309
5.92,-0.19212610122701035,-0.016942946367493748,95.07941415745573
5.93,-0.27476383801612514,-0.06677401286396177,95.13515328195169
5.94,-0.19747347198757262,-0.022286786190083792,94.97818678193433
5.95,-0.26524475957001786,-0.059655289078752054,94.67514533496202
5.96,-0.20577896274333957,-0.027621032045308323,94.3945276737065
5.97,-0.2711989241757503,-0.07389273664917148,94.08059467367177
5.98,-0.19508422122221503,-0.016942946367493748,93.71028186954918
5.99,-0.2705921303305801,-0.06321465097135691,93.37392508379769
6.0,-0.18260702278090304,-0.021097134236760334,92.82422199394097
6.01,-0.2604662580393026,-0.051941739316880606,91.85871784893621
6.02,-0.16774057357423347,0.00855781889003648,90.68114875901004
6.03,-0.24085923191724098,-0.0406688276624043,89.18836530986533
6.04,-0.17786644586551098,-0.004489976727059498,87.43802866477375
6.05,-0.23907677499705354,-0.0406688276624043,85.71011580539896
6.06,-0.16595811665404606,-0.00389515075039777,84.22950526850049
6.07,-0.2521607672835357,-0.04364295754571294,83.12945840919514
6.08,-0.18556514277610772,-0.0050848027037212265,82.41125658666672
6.09,-0.25989738880945557,-0.05906046310209032,82.0640082478528
6.1,-0.18795439354146531,-0.015168062404874075,81.94035708661463
6.11,-0.27176779340559737,-0.05609592718614719,81.94035708661463
6.12,-0.19330176430202758,-0.018727424297478933,81.9627808723314
6.13,-0.2658136287998649,-0.04838237742427575,82.01851999682735
6.14,-0.18856118738663552,-0.014573236428212346,81.9627808723314
6.15,-0.2753327072459722,-0.05490627523282374,81.90640106824353
6.16,-0.2052100935134925,-0.022286786190083792,81.85066194374757
6.17,-0.27950441493151723,-0.06677401286396177,81.8282381580308
6.18,-0.19034364430682293,-0.019917076250802388,81.6597394253591
6.19,-0.26463796572484766,-0.05846563712542859,81.25611128245731
6.2,-0.19330176430202758,-0.0133931784422544,80.99791740691855
6.21,-0.26107305188447283,-0.05075208736355715,80.84095090690118
6.22,-0.19273289507218055,-0.027026206068646596,80.56033324564565
6.23,-0.2759395010911424,-0.06143017304137172,80.02152170885137
6.24,-0.17786644586551098,0.009747470843359937,79.33727590469404
6.25,-0.26642042264503507,-0.059655289078752054,78.70876922503268
6.26,-0.21412237811442963,-0.02584614808268865,78.19238147395517
6.27,-0.2771151641661596,-0.05609592718614719,77.77786177799094
6.28,-0.2022140489029647,-0.024656496129365192,77.38512518815158
6.29,-0.2723745872507676,-0.06854889682658144,76.98085636565789
6.3,-0.2004315919827773,-0.025251322106026923,76.41962104314683
6.31,-0.2604662580393026,-0.03711905973716496,75.80264659613981
6.32,-0.1956910150673852,-0.009238990572987814,75.39901845323801
6.33,-0.25989738880945557,-0.05253656529354234,75.15171613076168
6.34,-0.16178640896850102,0.018046252614527598,74.97232584502756
6.35,-0.20877500735386736,-0.009238990572987814,74.75897954092233
6.36,-0.1297021844051274,0.019830730544512783,74.55716546947143
6.37,-0.19273289507218055,0.00024944315150330547,74.32139537964943
6.38,-0.13326709824550226,0.031688874208285304,73.69352937957999
6.39,-0.21529804118944687,-0.02940550997529351,72.99775134276832
6.4,-0.12553047671958237,0.01745142663786587,72.8856324141845
6.41,-0.21055746427405478,-0.02821585802197005,73.09897871828973
6.42,-0.19091251353667,0.009152644866698208,73.32321657545738
6.43,-0.2765462949363126,-0.035929407783841495,73.13229405706892
6.44,-0.19151930738184017,0.010927528829317882,72.6838183427336
6.45,-0.2806800780065345,-0.05016685535426093,72.32439709167343
6.46,-0.2265995765557416,-0.020502308260098606,72.16743059165607
6.47,-0.2759395010911424,-0.047202319438317805,72.15589835900174
6.48,-0.2052100935134925,0.0038088050441081643,71.83107380590458
6.49,-0.26285550880466024,-0.047202319438317805,71.53892391199471
6.5,-0.2052100935134925,-0.003309918741101553,71.55045614464905
6.51,-0.320500924095828,-0.04838237742427575,71.51650012627795
6.52,-0.324672631781373,-0.021691960213422064,71.37106585891492
6.53,-0.10414099367733329,0.10702070596228355,71.14618732215536
6.54,0.8933143139364842,0.2630186153255046,70.91041723233336
6.55,1.0163796906600626,0.12362786347198439,70.73102694659923
6.56,0.29531897952126523,0.006188108950755077,70.52921287514833
6.57,-0.1939085581471978,-0.04838237742427575,70.37224637513097
6.58,-0.15943508281846655,0.03287852616160876,70.3498225894142
6.59,-0.24798905959799067,-0.024656496129365192,70.40556171391017
6.6,-0.19330176430202758,-0.001525440811116368,70.37224637513097
6.61,-0.2539432242037231,-0.051346913340218875,70.09162871387544
6.62,-0.2034276365933051,-0.0021202667877780962,69.85585862405344
6.63,-0.26524475957001786,-0.05372621724686579,69.74373969546961
6.64,-0.19686667814240244,-0.014573236428212346,69.53039339136438
6.65,-0.2658136287998649,-0.04838237742427575,69.227992623984
6.66,-0.18856118738663552,0.002628747058150219,69.1600805872418
6.67,-0.25633247496908074,-0.047202319438317805,69.1940366056129
6.68,-0.18082456586071563,0.0014390951048267623,69.11523301580826
6.69,-0.21529804118944687,-0.03414492985385631,68.93584273007413
6.7,-0.14456863361179698,0.023390092437117642,68.7224964259689
6.71,-0.19330176430202758,-0.03237004589123664,68.57706215860587
6.72,-0.13087784748014464,0.02397532444641386,68.520682354518
6.73,-0.17725965202034077,-0.018132598320817206,68.83525603414463
6.74,-0.09761795984175378,0.034058584147566705,69.78858726690315
6.75,-0.14100371977142212,-0.006274454657044684,72.03288787735548
6.76,-0.04528199069582518,0.06430836325102525,76.18449163291673
6.77,-0.06727826758324446,0.047701205741324415,81.33427419267004
6.78,0.04387877992886913,0.10405617004634042,86.21497132382216
6.79,0.04031386608849428,0.07973546277476815,89.54778656092549
6.8,0.13956258438914293,0.15624735251472432,91.54478484890149
6.81,0.11639064442670644,0.12718722536458926,92.82422199394097
6.82,0.20141763198117885,0.1758190459403683,93.44119644094799
6.83,0.11877989519206404,0.09811750424708865,94.03574710223825
6.84,0.11165006751131434,0.13015176128053238,94.83211183497939
6.85,-0.017938343047843645,0.022795266460455915,95.50546608607428
6.86,-0.02211005073338868,0.05956894337246245,95.76365996161304
6.87,-0.16356886588868844,-0.02881068399863178,95.69638860446274
6.88,-0.12852652133011017,0.03643788805421362,95.41577094320722
6.89,-0.19686667814240244,-0.02584614808268865,95.09030571051815
6.9,-0.17487040125498318,0.00855781889003648,94.6642537818996
6.91,-0.24920264728833105,-0.04838237742427575,94.2599849594059
6.92,-0.19091251353667,-0.0050848027037212265,93.86724836956654
6.93,-0.24859585344316085,-0.06380947694801864,93.60905449402777
6.94,-0.20103838582794747,-0.001525440811116368,93.67696653076999
6.95,-0.2474201903681436,-0.05313139127020406,93.78908545935381
6.96,-0.1814313597058858,-0.008644164596326085,93.46362022666476
6.97,-0.2444241457576158,-0.06498953493397658,92.8017982082242
6.98,-0.19747347198757262,0.0067829349274168066,92.0944879387582
6.99,-0.21290879042408925,-0.04304813156905121,91.1744720447789
7.0,-0.16834736741940368,0.013306832735964795,90.07506586506545
7.01,-0.2164737042644641,-0.05253656529354234,89.08777861393584
7.02,-0.18734759969629514,0.0020339210814884906,88.04411155871836
7.03,-0.22955769655094624,-0.05490627523282374,86.48469743201525
7.04,-0.15765262589827914,0.03347335213827049,84.63313341140228
7.05,-0.23846998115188336,-0.06025011505541378,82.97249190917778
7.06,-0.18021777201554545,0.0014390951048267623,81.86155349680999
7.07,-0.23194694731630386,-0.05728557913947065,81.2894266212365
7.08,-0.18082456586071563,0.010332702852656153,81.09850410284804
7.09,-0.24085923191724098,-0.038893943699784626,81.12092788856481
7.1,-0.19034364430682293,0.005593282974093349,81.30095885389085
7.11,-0.23846998115188336,-0.05075208736355715,81.48034913962498
7.12,-0.19212610122701035,0.016271368651907925,81.51366447840417
7.13,-0.23255374116147404,-0.05846563712542859,81.5251967110585
7.14,-0.19629780891255538,0.018046252614527598,81.51366447840417
7.15,-0.2289888273210992,-0.05846563712542859,81.50277292534174
7.16,-0.19808026583274282,0.00024944315150330547,81.37912176410357
7.17,-0.23194694731630386,-0.06025011505541378,81.19973147836944
7.18,-0.18677873046644808,0.010332702852656153,81.00880895998098
7.19,-0.21768729195480446,-0.04541784150833262,80.68334372729191
7.2,-0.20756141966352698,0.013306832735964795,80.35851917419477
7.21,-0.2515539734383655,-0.051941739316880606,80.02152170885137
7.22,-0.2004315919827773,0.023390092437117642,79.4942424047114
7.23,-0.24681339652297343,-0.051941739316880606,78.86573572505004
7.24,-0.18973685046165276,0.015676542675246197,78.24876127804303
7.25,-0.2379011119220363,-0.05372621724686579,77.7323735269655
7.26,-0.20638575658850974,0.014486890721922741,77.32874538406371
7.27,-0.2349050673115085,-0.06498953493397658,76.91358500850758
7.28,-0.20577896274333957,0.019830730544512783,76.56569599010176
7.29,-0.23846998115188336,-0.054311449256162006,76.21780697169594
7.3,-0.20460329966832233,0.013306832735964795,75.70205990021032
7.31,-0.23668752423169595,-0.051941739316880606,75.18567214913278
7.32,-0.18082456586071563,0.028724338292342173,74.78204400623099
7.33,-0.22125220579517932,-0.035929407783841495,74.48989411232112
7.34,-0.15704583205310893,0.039997249946818476,74.33292761230376
7.35,-0.15882828897329637,-0.026440974059350378,74.16442887963207
7.36,-0.10353419983216311,0.06668766715767216,73.92929946940198
7.37,-0.14339297053677974,0.010332702852656153,73.67110559386322
7.38,-0.11661819211864526,0.06728249313433389,73.42380327138687
7.39,-0.1600039520483136,-0.04185847961572776,73.21109764687355
7.4,-0.1225723567243777,0.03703271403087535,72.77351348560066
7.41,-0.22364145656053694,-0.04008359565310809,72.4140922345405
7.42,-0.22242786887019655,0.0008442691281650338,72.60501475292897
7.43,-0.2361186550018489,-0.046607493461656074,72.89652396724692
7.44,-0.21173312734907201,0.028129512315680446,72.79593727131743
7.45,-0.24920264728833105,-0.06143017304137172,72.26865796717748
7.46,-0.20699255043367992,0.02101078853047073,71.74073798344561
7.47,-0.2527675611287059,-0.05846563712542859,71.59530371608258
7.48,-0.20399650582315212,0.018046252614527598,71.55045614464905
7.49,-0.23846998115188336,-0.06498953493397658,71.41591343034845
7.5,-0.26642042264503507,0.016866194628569652,71.33710984054382
7.51,-0.37283689324175656,-0.059655289078752054,71.28073003645595
7.52,-0.0708431814236193,0.1283768773179127,71.18014334052646
7.53,0.858840838607753,0.1710796260618055,71.07891596500505
7.54,1.2482128641303971,0.1509131066594998,71.0231768405091
7.55,0.30722730873273013,-0.047202319438317805,70.93348169764204
7.56,-0.12553047671958237,0.023390092437117642,70.76498296497033
7.57,-0.2052100935134925,-0.024656496129365192,70.59648423229864
7.58,-0.1796489027856984,0.044736669825381284,70.49589753636914
7.59,-0.20877500735386736,-0.02940550997529351,70.54074510780268
7.6,-0.19508422122221503,0.024570150423075587,70.73102694659923
7.61,-0.2164737042644641,-0.05669075316280892,70.6528640363865
7.62,-0.16478245357902882,0.04355661183942334,70.21527987511361
7.63,-0.20103838582794747,-0.06143017304137172,69.57524096279792
7.64,-0.18378268585592028,0.031688874208285304,69.08191767702907
7.65,-0.20164517967311765,-0.03770429174646117,68.96979874844523
7.66,-0.17430153202513612,0.0269494543297225,69.09280923009149
7.67,-0.17904210894052822,-0.03473975583051804,69.17161281989613
7.68,-0.14752675360700163,0.06728249313433389,69.17161281989613
7.69,-0.14517542745696715,-0.01932225027414066,69.12676524846259
7.7,-0.12078989980419029,0.06016376934912417,68.96979874844523
7.71,-0.13087784748014464,-0.018727424297478933,68.83525603414463
7.72,-0.11366007212344059,0.05660440745651932,68.98069030150766
7.73,-0.1106640275129128,-0.009238990572987814,69.81101105261992
7.74,-0.041717076855450334,0.09159360643854066,71.74073798344561
7.75,-0.057759189137137144,0.02753468633901872,75.45475757773397
7.76,0.006409259989610097,0.10939041590156495,80.77367954975088
7.77,0.02127570919627967,0.060758595325785904,85.66526823396542
7.78,0.08608887678352023,0.16277125032327233,89.31201647110349
7.79,0.10747835982576932,0.07854581082144468,91.48904572440553
7.8,0.16929548280248208,0.18591189960888665,92.733886171482
7.81,0.16334131819674963,0.10642587998562182,93.53089158381505
7.82,0.1794213550937596,0.17700869789369175,94.04663865530067
7.83,0.08074150602295796,0.050675335624633056,94.5969824247493
7.84,0.04448557377403931,0.11176012584084635,95.24727221053551
7.85,-0.03936575070541586,0.004403631020769893,95.79761597998414
7.86,-0.08096905371489678,0.05660440745651932,95.80850753304658
7.87,-0.1528741243675639,-0.0382991177231229,95.52788987179105
7.88,-0.14991600437235925,0.03880759799349502,95.18000085338522
7.89,-0.1861719366212779,-0.0744779686584677,94.8660678533505
7.9,-0.17547719510015336,0.024570150423075587,94.47333126351114
7.91,-0.2034276365933051,-0.05669075316280892,94.10301845938854
7.92,-0.17073661818476127,0.01864107859118933,93.78908545935381
7.93,-0.18260702278090304,-0.05846563712542859,93.62058672668212
7.94,-0.1719122812597785,0.02753468633901872,93.72181410220352
7.95,-0.19864913506258985,-0.06439470895731486,93.73270565526595
7.96,-0.17073661818476127,0.021605614507132456,93.25027392255953
7.97,-0.18021777201554545,-0.0697385487799049,92.55449588574787
7.98,-0.1528741243675639,0.028724338292342173,91.73570736728995
7.99,-0.1701298243395911,-0.06083534706471,90.5683891508343
8.0,-0.15169846129254666,0.01745142663786587,89.23321288129885
8.01,-0.16656491049921623,-0.07329791067250976,88.07806757708946
8.02,-0.1623932028136712,0.012117180782641339,86.86590178920027
8.03,-0.17073661818476127,-0.05490627523282374,85.2501078584093
8.04,-0.1439618397666268,0.031094048231623577,83.7579650888565
8.05,-0.15526337513292152,-0.05313139127020406,82.69187424792224
8.06,-0.14752675360700163,0.039997249946818476,82.05247601519847
8.07,-0.18200022893573287,-0.0744779686584677,81.85066194374757
8.08,-0.14752675360700163,0.03643788805421362,81.9627808723314
8.09,-0.18321381662607325,-0.07685727256511461,82.10885581928633
8.1,-0.1558701689780917,0.01864107859118933,82.25429008664935
8.11,-0.2004315919827773,-0.09286960409815373,82.42278881932106
8.12,-0.15230525513771687,0.009152644866698208,82.43368037238348
8.13,-0.17725965202034077,-0.08871541622888714,82.36640901523319
8.14,-0.1623932028136712,0.01152235480597961,82.2658223193037
8.15,-0.1719122812597785,-0.085750880312944,82.17612717643662
8.16,-0.14517542745696715,0.029319164269003904,81.97367242539383
8.17,-0.17487040125498318,-0.07982180848105774,81.6936954437302
8.18,-0.1463510905319844,0.022795266460455915,81.33427419267004
8.19,-0.18021777201554545,-0.09286960409815373,80.90822226405149
8.2,-0.15052279821752942,0.0032235730348119476,80.53790945992888
8.21,-0.17430153202513612,-0.07566762061179116,80.15606442315196
8.22,-0.14813354745217183,0.006188108950755077,79.71848026187907
8.23,-0.17073661818476127,-0.0875353582429292,79.16877717202235
8.24,-0.15882828897329637,-0.009238990572987814,78.36088020662686
8.25,-0.17725965202034077,-0.09702379196742031,77.6651021698152
8.26,-0.1362252182407069,0.0067829349274168066,77.30632159834694
8.27,-0.16895416126457385,-0.07507279463512943,77.11539907995848
8.28,-0.1392212628512347,0.0014390951048267623,76.95843257994112
8.29,-0.16774057357423347,-0.09998832788336344,76.62207579418963
8.3,-0.148740341297342,0.020415962553809,76.0044606675907
8.31,-0.16478245357902882,-0.08397599635032434,75.44386602467155
8.32,-0.11961423672917305,0.012117180782641339,75.12929234504492
8.33,-0.12374801979939495,-0.07745209854177634,74.96143429196512
8.34,-0.07144997526878948,0.03347335213827049,74.8153593450102
8.35,-0.08809888139564648,-0.049572029377599205,74.6135452735593
8.36,-0.06906072450343187,0.06134382733508212,74.42262275517083
8.37,-0.09761795984175378,-0.059655289078752054,74.15353732656963
8.38,-0.05597673221694972,0.03940242397015675,73.67110559386322
8.39,-0.12791972748494,-0.07151343274252457,73.32321657545738
8.4,-0.12196556287920753,0.03287852616160876,73.31168434280305
8.41,-0.16717170434438644,-0.10532257373858797,73.50260686119151
8.42,-0.12613727056475255,0.0014390951048267623,73.51413909384586
8.43,-0.17904210894052822,-0.0875353582429292,73.05349046726428
8.44,-0.15109166744737648,0.01152235480597961,72.5825909672122
8.45,-0.15822149512812617,-0.07151343274252457,72.36924466310697
8.46,-0.13982805669640488,0.014486890721922741,72.29108175289424
8.47,-0.1695230304944209,-0.0810114604343812,72.20138661002717
8.48,-0.14278617669160956,-0.004489976727059498,71.93166050183407
8.49,-0.21412237811442963,-0.10176321184598311,71.67346662629531
8.5,-0.2123399211942422,0.02753468633901872,71.60619526914502
8.51,0.2727159087886758,0.15684217849138607,71.60619526914502
8.52,1.3878892223655095,0.25530506556363314,71.59530371608258
8.53,0.745901334175452,0.07261673898955842,71.50560857321553
8.54,0.19129175968990136,0.01745142663786587,71.35953362626059
8.55,-0.1106640275129128,-0.04838237742427575,71.20256712624322
8.56,-0.08870567524081667,0.042366959886099884,71.03406839357153
8.57,-0.12613727056475255,-0.085750880312944,70.89952567927092
8.58,-0.10831270136287832,-0.011608700512269216,70.72013539353681
8.59,-0.1231791505695479,-0.09346443007481546,70.5516366608651
8.6,-0.09940041676194121,0.0038088050441081643,70.4504092853437
8.61,-0.13565634901085985,-0.09879867593003999,70.21527987511361
8.62,-0.1065302444426909,-0.004489976727059498,69.99040133835405
8.63,-0.11305327827827041,-0.0899050681822106,69.86739085670779
8.64,-0.08870567524081667,0.031094048231623577,69.59766474851469
8.65,-0.09761795984175378,-0.07745209854177634,69.35100310563026
8.66,-0.06193089682268218,0.028129512315680446,69.12676524846259
8.67,-0.077973009104369,-0.07033337475656663,68.94737496272846
8.68,-0.052411818376574874,0.023390092437117642,69.0255378729412
8.69,-0.057190319907290094,-0.07566762061179116,69.227992623984
8.7,-0.02745742149395095,0.028129512315680446,69.60919698116902
8.71,-0.042930664545790705,-0.07329791067250976,70.39467016084774
8.72,0.00762284767995047,0.05837929141913899,72.2795495202399
8.73,0.008798510754967707,-0.02940550997529351,75.90387397166121
8.74,0.06526826297111821,0.09278325839186412,80.69487595994626
8.75,0.09261191061909975,0.0014390951048267623,85.36222678699313
8.76,0.16929548280248208,0.1259975734112658,89.03139880984797
8.77,0.1859443889293391,0.05481992952653413,91.5114695101223
8.78,0.2537156765117843,0.1752338139310721,93.29512149399305
8.79,0.2507196319012565,0.07973546277476815,94.2599849594059
8.8,0.2846242380001407,0.1936158554033926,94.92244765743837
8.81,0.23232619346953523,0.07380639094288188,95.64000880037487
8.82,0.18237947508896424,0.12184338554199921,96.01032160449748
8.83,0.0723980906518679,-0.024061670152703465,96.2576239269738
8.84,0.03435970148276182,0.06193865331174385,96.6952080882467
8.85,-0.046495578386165554,-0.07329791067250976,96.90791371276002
8.86,-0.05658352606211991,0.005593282974093349,96.70609964130912
8.87,-0.10057607983695845,-0.10473734172929176,96.3582106229033
8.88,-0.0708431814236193,0.016866194628569652,96.02185383715181
8.89,-0.09405304600137894,-0.0899050681822106,95.80850753304658
8.9,-0.09283945831103857,0.005593282974093349,96.03274539021423
8.91,-0.10888157059272538,-0.085750880312944,96.11154898001887
8.92,-0.07740413987452194,0.007962992913374751,95.23638065747309
8.93,-0.09640437215141341,-0.10532257373858797,94.57455863903253
8.94,-0.09283945831103857,-0.003309918741101553,94.77637271048343
8.95,-0.10948836443789556,-0.11363094947712114,95.02303435336786
8.96,-0.09105700139085114,-0.015168062404874075,94.77637271048343
8.97,-0.09640437215141341,-0.12430903515493573,94.14786603082207
8.98,-0.0661026045082272,-0.018727424297478933,93.29512149399305
8.99,-0.09405304600137894,-0.12074967326233087,92.11691172447497
9.0,-0.06193089682268218,-0.006274454657044684,90.25445615079958
9.01,-0.0708431814236193,-0.09642896599075858,88.43684814855771
9.02,-0.06075523374766494,0.009747470843359937,87.2137908076061
9.03,-0.09048813216100408,-0.11363094947712114,86.05800482380478
9.04,-0.06136202759283513,0.002628747058150219,85.05982601961274
9.05,-0.09583550292156635,-0.10176321184598311,84.20708148278372
9.06,-0.08631642447545905,-0.021691960213422064,83.5894663561848
9.07,-0.0898813383158339,-0.10058315386002517,83.26400112349573
9.08,-0.06253769066785236,0.006188108950755077,83.09614307041595
9.09,-0.10235853675714586,-0.1100715875845163,82.99491569489454
9.1,-0.06193089682268218,0.016271368651907925,83.06218705204483
9.11,-0.09166379523602132,-0.09939350190670171,83.17430598062867
9.12,-0.0898813383158339,-0.012798352465592673,83.185838213283
9.13,-0.09879362291677102,-0.0946444880607734,83.11856685613272
9.14,-0.09640437215141341,-0.005679628680382955,82.93917657039859
9.15,-0.1225723567243777,-0.1124412975237977,82.77067783772688
9.16,-0.08809888139564648,-0.018132598320817206,82.53490774790488
9.17,-0.1106640275129128,-0.09702379196742031,82.24339853358693
9.18,-0.08927454447066371,0.0008442691281650338,82.22097474787016
9.19,-0.09640437215141341,-0.09998832788336344,81.98520465804816
9.2,-0.09344625215620875,-0.011013874535607487,81.46881690697063
9.21,-0.09583550292156635,-0.10058315386002517,80.73972353137978
9.22,-0.07562168295433451,0.004403631020769893,79.78575161902937
9.23,-0.09761795984175378,-0.10473734172929176,78.95543086791712
9.24,-0.08275151063508421,0.0014390951048267623,78.4396837964315
9.25,-0.08870567524081667,-0.08515605433628227,78.22633749232627
9.26,-0.0898813383158339,0.004403631020769893,78.0020996351586
9.27,-0.08631642447545905,-0.08931024220554887,77.64267838409843
9.28,-0.077973009104369,0.009747470843359937,77.26147402691342
9.29,-0.08570963063028887,-0.1011779798366869,76.82388986564052
9.3,-0.0738392260341471,0.0067829349274168066,76.21780697169594
9.31,-0.06849185527358483,-0.0875353582429292,75.78022281042304
9.32,-0.036369706094888064,0.020415962553809,75.52202893488428
9.33,-0.03341158609968341,-0.08871541622888714,75.42144223895478
9.34,-0.014373429207468797,0.03940242397015675,75.33174709608772
9.35,-0.02150325688821849,-0.0744779686584677,75.15171613076168
9.36,-0.01915193073818402,0.0382127720168333,74.8153593450102
9.37,-0.003678687686344257,-0.06143017304137172,74.40019896945407
9.38,-0.02628175841893371,0.031094048231623577,73.64868180814645
9.39,-0.05897277682747752,-0.06914372280324317,73.27836900402386
9.4,-0.09405304600137894,0.023390092437117642,73.44622705710364
9.41,-0.07501488910916433,-0.08871541622888714,73.82807209388058
9.42,-0.08809888139564648,-0.002715092764439825,73.9401910224644
9.43,-0.10709911367253795,-0.10058315386002517,73.64868180814645
9.44,-0.08392717371010144,0.007962992913374751,73.24441298565276
9.45,-0.10770590751770813,-0.11778513734638774,72.85167639581339
9.46,-0.09344625215620875,-0.001525440811116368,72.70624212845037
9.47,-0.09283945831103857,-0.09583414001409686,72.56016718149543
9.48,-0.07857980294953917,0.025759802376399046,72.1450068059393
9.49,-0.19091251353667,-0.10651222569191143,71.81954157325025
9.5,-0.02984667225930856,0.1349007751264607,71.77469400181671
9.51,0.7554204126215592,0.23335406823134225,71.83107380590458
9.52,1.4823973637507661,0.20904295492713548,71.86438914468378
9.53,0.5455835160386441,-0.021097134236760334,71.76316176916238
9.54,0.03674895224811943,0.0008442691281650338,71.57287993036581
9.55,-0.04767124146118279,-0.0382991177231229,71.34864207319816
9.56,-0.06906072450343187,0.044736669825381284,71.12376353643859
9.57,-0.07501488910916433,-0.07507279463512943,70.989220822138
9.58,-0.05362540606691525,0.034653410124228436,70.89952567927092
9.59,-0.06549581066305703,-0.06143017304137172,70.989220822138
9.6,-0.05480106914193249,0.012117180782641339,70.96679703642123
9.61,-0.05123615530155764,-0.054311449256162006,70.6861793751657
9.62,-0.057759189137137144,0.021605614507132456,70.36071414247664
9.63,-0.04471312146597813,-0.07507279463512943,70.02435735672515
9.64,-0.04588878454099537,0.039997249946818476,69.47465426686843
9.65,-0.037583293785228435,-0.06795407084991971,69.1600805872418
9.66,-0.0238925076535761,0.04117730793277642,69.07038544437472
9.67,-0.014373429207468797,-0.054311449256162006,69.07038544437472
9.68,0.0022754769193882,0.051855393610591,69.2613079627632
9.69,0.004057933839575623,-0.04422818955500916,69.53039339136438
9.7,0.012970218440512741,0.04592632177870474,70.03524890978757
9.71,0.051615401454789,-0.024656496129365192,71.0564921792883
9.72,0.057531641445198324,0.07677092685882501,73.42380327138687
9.73,0.09617682445947459,-0.0009306148344546396,77.54209168816894
9.74,0.14847486899008006,0.12066332755604126,82.38883280094996
9.75,0.1764253104832318,0.03703271403087535,86.65255548509504
9.76,0.2424141411454896,0.17879317582367693,90.00779450791515
9.77,0.2911472718357202,0.09574779430780725,92.08359638569578
9.78,0.31849091948370173,0.2185313886516266,93.58663070831102
9.79,0.33931153329610375,0.11710396566343641,94.88849163906725
9.8,0.32562074716445144,0.19717521729599746,95.71881239017951
9.81,0.27571195339920357,0.07321156496622015,96.07759296164777
9.82,0.1948566735302762,0.12955693530387066,95.86488733713445
9.83,0.13008143055835877,-0.0068596866663409,95.83093131876335
9.84,0.04505444300388636,0.0542251035498724,96.43701421270794
9.85,0.004057933839575623,-0.03948876967644636,96.76247944539699
9.86,-0.013804559977621747,0.031688874208285304,96.60487226578772
9.87,-0.017369473817996594,-0.06321465097135691,96.1563965514524
9.88,-0.04471312146597813,0.028724338292342173,95.75212772895871
9.89,-0.042930664545790705,-0.07922698250439601,95.52788987179105
9.9,-0.059541646057324565,0.023390092437117642,95.28122822890663
9.91,-0.05123615530155764,-0.08931024220554887,95.06788192480138
9.92,-0.04528199069582518,0.010927528829317882,94.57455863903253
9.93,-0.041717076855450334,-0.07745209854177634,94.30483253083943
9.94,-0.04410632762080795,0.01745142663786587,94.47333126351114
9.95,-0.047064447616012604,-0.09049989415887233,94.48486349616547
9.96,-0.046495578386165554,0.020415962553809,94.1254422451053
9.97,-0.03519404301987083,-0.09702379196742031,93.38481663686012
9.98,-0.03875895686024568,0.019235904567851056,92.27387822449234
9.99,-0.03398045532953045,-0.085750880312944,90.81569147331064
