time_s,ECG,NIBP
0.0,-0.022890670315409593,100.21801719943332
0.01,-0.025172256735736365,98.78469035863475
0.02,-0.023189894763977037,97.16685170798061
0.03,-0.028070993581233494,95.9766894377864
0.04,-0.027472544684098602,94.54214066447224
0.05,-0.02395665741343112,93.90184802629794
0.06,-0.02532186896002009,93.41307502005802
0.07,-0.02640655758607708,92.68113744321374
0.08,-0.02913698067925502,91.88688130807387
0.09,-0.028070993581233494,91.58262011168952
0.1,-0.030053355552992822,90.69671903787966
0.11,-0.03143726862761726,88.68297425217119
0.12,-0.029754131104425378,87.67610185931696
0.13,-0.028220605805517218,87.06513560151706
0.14,-0.02395665741343112,86.1499081473328
0.15,-0.017093196624415333,85.5694902024229
0.16,-0.014792908676053094,85.08193912869858
0.17,-0.008995434985058835,84.65426274823864
0.18,-0.006564236340448339,84.53206949667866
0.19,-0.019692709021345015,84.77645599979863
0.2,-0.028538531782120128,84.68481106112864
0.21,-0.02365743296486367,84.71535937401863
0.22,-0.02044077014276363,84.59316612245865
0.23,-0.01984232124562874,85.11248744158857
0.24,-0.01815918372243686,85.02084250291858
0.25,-0.016326433974961252,85.11248744158857
0.26,-0.01694358440013161,84.95974587713859
0.27,-0.015410059101223452,85.08193912869858
0.28,-0.0166256584235287,86.21100477311279
0.29,-0.016476046199244976,85.93606995710283
0.3,-0.014194459778918204,85.44851888337851
0.31,-0.016476046199244976,85.14303575447856
0.32,-0.04608056507938663,84.56261780956866
0.33,-0.07476870908579049,83.86122854561437
0.34,0.13382813462179008,83.37245553937446
0.35,0.6088282451945746,83.52519710382442
0.36,0.861504590481747,82.91545277854013
0.37,0.5787748896415817,83.0681943429901
0.38,0.16159990375445613,83.00709771721012
0.39,0.014792908676053094,83.0376460301001
0.4,0.0051803232658239025,82.02955170473027
0.41,-0.008079060111321033,81.81693544701591
0.42,-0.015709283549790898,81.236517502106
0.43,-0.018458408171004304,80.5656765510417
0.44,-0.020590382367047355,79.28386934217751
0.45,-0.020141545694196187,79.03948283905756
0.46,-0.021506757240785157,78.55070983281763
0.47,-0.020291157918479907,78.7339997101576
0.48,-0.020141545694196187,78.2159003235433
0.49,-0.01785995927386941,77.87986888175334
0.5,-0.011295722933421072,77.29945093684344
0.51,-0.009762197634512915,77.08561274661348
0.52,-0.007013073013299507,76.9035448017891
0.53,0.0,77.14670937239346
0.54,0.008696210536491389,76.53696504710916
0.55,0.0166256584235287,76.65915829866914
0.56,0.026705782034644524,76.20093360531922
0.57,0.03676720411772488,76.2620302310992
0.58,0.04791331482686224,76.53696504710916
0.59,0.055393926041048376,78.24644863643329
0.6,0.05797473690994259,82.94600109143012
0.61,0.05096166389664309,91.97852624674385
0.62,0.03448561769739811,102.26353223054738
0.63,0.01907555859617466,112.27238146582535
0.64,0.005498249242426814,119.01744895193626
0.65,-0.003815111719234932,121.94642119182899
0.66,-0.011744559606272242,121.8254498727846
0.67,-0.007480611214186141,122.00751781760897
0.68,-0.009313360961661746,121.79490155989461
0.69,-0.003815111719234932,121.8254498727846
0.7,-0.0015335252989081589,120.51309435103042
0.71,0.0030483490697808526,118.68141751014632
0.72,0.005498249242426814,115.81354189603358
0.73,0.007330998989902419,103.72862931675154
0.74,0.007929447887037309,101.04282164746319
0.75,0.004263948392086101,99.63882118703901
0.76,0.006863460789015784,97.8682409719349
0.77,0.005647861466710536,96.34326919246634
0.78,0.004432262144405288,95.4268198057665
0.79,0.0006171504251703566,94.29775416135227
0.8,-0.0033662750463837638,93.47417164583801
0.81,-0.0019823619717593273,93.04649526537808
0.82,0.0,92.2840093756438
0.83,-0.0009163748737378023,92.00907455963385
0.84,-0.0016831375231918819,91.0632987925596
0.85,0.0021319741960430503,90.39123590897971
0.86,0.002599512396929684,88.89681244240116
0.87,0.0024499001726459614,88.13310462015127
0.88,-0.0009163748737378023,87.30952210463701
0.89,0.001215599322305248,86.7596524726171
0.9,0.0039647239435186546,85.81387670554285
0.91,0.005797473690994259,85.5389418895329
0.92,0.013726921578031568,85.44851888337851
0.93,0.016027209526393808,85.5389418895329
0.94,0.0175420332972665,85.44851888337851
0.95,0.02075869611936654,85.63058682820288
0.96,0.011894171830555965,85.4790671962685
0.97,0.0039647239435186546,85.5389418895329
0.98,0.0039647239435186546,85.41797057048852
0.99,0.006414624116164616,85.5694902024229
1.0,0.007013073013299507,85.44851888337851
1.01,0.007480611214186141,85.93606995710283
1.02,0.010528960283966994,85.75278007976286
1.03,0.011594947381988518,85.87497333132285
1.04,0.010678572508250717,85.84442501843284
1.05,0.011445335157704796,86.7902007855071
1.06,0.015877597302110084,86.21100477311279
1.07,0.01907555859617466,85.87497333132285
1.08,0.0175420332972665,85.35687394470852
1.09,0.005348637018143091,85.08193912869858
1.1,-0.04090024181356273,84.19725998740432
1.11,0.0380015049680656,83.95287348428435
1.12,0.4386817431279108,83.00709771721012
1.13,0.8605882156080091,82.67106627542016
1.14,0.7922341306383833,81.69474219545593
1.15,0.3540012241833237,81.32816244077598
1.16,0.06850369719390959,80.80884112164607
1.17,0.02777176913266605,80.5656765510417
1.18,0.02395665741343112,80.13800017058178
1.19,0.016027209526393808,79.83251704168183
1.2,0.012978860456612956,79.25332102928752
1.21,0.010229735835399548,79.13112777772754
1.22,0.01114611070913735,79.03948283905756
1.23,0.012978860456612956,78.70345139726761
1.24,0.011744559606272242,78.1548036977633
1.25,0.013427697129464124,78.33687164258767
1.26,0.01114611070913735,77.63548237863338
1.27,0.0132780849051804,77.4827408141834
1.28,0.015709283549790898,77.05506443372347
1.29,0.018776334147607213,77.11616105950347
1.3,0.02640655758607708,76.62860998577915
1.31,0.03280248017420623,76.2620302310992
1.32,0.04073192806124354,76.07874035375923
1.33,0.05415962519070766,76.2620302310992
1.34,0.06409013657753976,76.13983697953923
1.35,0.07018683471710147,76.23148191820921
1.36,0.08193139432337371,76.9035448017891
1.37,0.0915439797336029,77.05506443372347
1.38,0.09079591861218429,76.9340931146791
1.39,0.07645184660898237,77.11616105950347
1.4,0.056160688690502454,76.8729964888991
1.41,0.04486496575708138,77.11616105950347
1.42,0.033569242823660306,80.47403161237172
1.43,0.02212390766595551,88.6218776263912
1.44,0.014344072003201926,99.0889515550191
1.45,0.006863460789015784,109.5266991032726
1.46,0.007480611214186141,109.40450585171261
1.47,0.014194459778918204,109.4961507903826
1.48,0.019991933469912463,109.37395753882262
1.49,0.024405494086282287,109.58779572905259
1.5,0.02365743296486367,113.34157241697518
1.51,0.024573807838601473,110.04479848988692
1.52,0.02700500648321197,107.02418131132421
1.53,0.02333950698826076,104.06343882602589
1.54,0.022890670315409593,97.16685170798061
1.55,0.021506757240785157,95.91559281200641
1.56,0.018608020395288027,95.03091367071215
1.57,0.02242313211452296,94.29775416135227
1.58,0.019991933469912463,93.84075140051795
1.59,0.016793972175847886,93.22978514271804
1.6,0.019692709021345015,92.62004081743375
1.61,0.016793972175847886,92.00907455963385
1.62,0.013128472680896678,91.0938471054496
1.63,0.0132780849051804,89.96478146103539
1.64,0.015709283549790898,88.89681244240116
1.65,0.014493684227485648,87.85939173665692
1.66,0.014643296451769372,86.97349066284707
1.67,0.014643296451769372,86.24155308600278
1.68,0.013726921578031568,85.50961550915851
1.69,0.012660934480010044,85.08193912869858
1.7,0.014643296451769372,84.99029419002859
1.71,0.015260446876939728,85.14303575447856
1.72,0.01617682175067753,84.86810093846861
1.73,0.023040282539693317,85.08193912869858
1.74,0.026705782034644524,84.99029419002859
1.75,0.029604518880141654,85.11248744158857
1.76,0.03418639324883067,84.9291975642486
1.77,0.01984232124562874,85.08193912869858
1.78,0.012361710031442598,85.05139081580857
1.79,0.017691645521550226,85.17358406736855
1.8,0.017691645521550226,85.14303575447856
1.81,0.017093196624415333,86.39429465045276
1.82,0.014961222428372282,86.1499081473328
1.83,0.015410059101223452,85.90552164421284
1.84,0.0175420332972665,85.44851888337851
1.85,0.013876533802315292,85.14303575447856
1.86,0.012978860456612956,84.22780830029431
1.87,0.013577309353747846,83.89177685850437
1.88,0.011744559606272242,82.94600109143012
1.89,0.011445335157704796,83.00709771721012
1.9,0.009911809858796637,82.4572280851902
1.91,-0.020590382367047355,82.21284158207024
1.92,-0.04333144045817322,81.236517502106
1.93,0.18310666099524128,81.02267931187603
1.94,0.6579571593437421,80.13800017058178
1.95,0.8906602726890375,79.83251704168183
1.96,0.5862367993277324,79.3449659679575
1.97,0.16799582634258525,79.16167609061753
1.98,0.026088631609474167,78.58125814570764
1.99,0.014792908676053094,78.64235477148762
2.0,0.004731486592972734,78.2159003235433
2.01,-0.003815111719234932,77.87986888175334
2.02,-0.00503071104154018,77.75767563019336
2.03,-0.006713848564732062,77.4827408141834
2.04,-0.005498249242426814,76.9340931146791
2.05,-0.005947085915277982,77.14670937239346
2.06,-0.012062485582875152,76.59806167288914
2.07,-0.01952439526902583,76.62860998577915
2.08,-0.021824683217388067,76.17038529242922
2.09,-0.017242808848699054,75.83435385063927
2.1,-0.01404484755463448,75.34680277691496
2.11,-0.013128472680896678,75.01077133512501
2.12,-0.008079060111321033,74.88857808356504
2.13,0.0010659870980215252,74.64419158044507
2.14,0.006265011891880893,74.55376857429069
2.15,0.015110834652656006,74.30938207117072
2.16,0.0265561698103608,74.09554388094075
2.17,0.03295209239848995,74.70528820622506
2.18,0.04424781533191102,75.7133825315949
2.19,0.04654810328027326,80.93103437320605
2.2,0.04181661668730053,89.8425882094754
2.21,0.027304230931779416,89.90368483525539
2.22,0.010678572508250717,100.61514526700324
2.23,-0.0051803232658239025,110.7474096863568
2.24,-0.01815918372243686,118.10222149775201
2.25,-0.027304230931779416,121.12283867631471
2.26,-0.03401807949651148,120.93954879897474
2.27,-0.03525238034685219,121.09229036342472
2.28,-0.03143726862761726,120.97009711186475
2.29,-0.03250325572563879,119.50622195817618
2.3,-0.030371281529595732,116.9426075404478
2.31,-0.030371281529595732,113.8902201164795
2.32,-0.029754131104425378,101.07336996035318
2.33,-0.030820118202446904,98.78469035863475
2.34,-0.032652867949922504,97.04465845642063
2.35,-0.0265561698103608,95.54901305732648
2.36,-0.030820118202446904,93.77965477473796
2.37,-0.03280248017420623,93.90184802629794
2.38,-0.03158688085190098,93.77965477473796
2.39,-0.03250325572563879,93.87129971340795
2.4,-0.030371281529595732,92.65058913032374
2.41,-0.03143726862761726,91.97852624674385
2.42,-0.03312040615080914,91.0632987925596
2.43,-0.03723474231861152,90.75781566365966
2.44,-0.037085130094327796,88.13310462015127
2.45,-0.03341963059937659,87.09568391440705
2.46,-0.03525238034685219,86.24155308600278
2.47,-0.03723474231861152,85.60003851531289
2.48,-0.038300729416633046,84.56261780956866
2.49,-0.0380015049680656,84.3194532389643
2.5,-0.03280248017420623,84.2583566131843
2.51,-0.028538531782120128,83.43355216515444
2.52,-0.028688144006403852,83.43355216515444
2.53,-0.025939019385190446,83.49464879093443
2.54,-0.020590382367047355,83.34190722648445
2.55,-0.012212097807158876,83.52519710382442
2.56,-0.0175420332972665,83.43355216515444
2.57,-0.03418639324883067,83.49464879093443
2.58,-0.03510276812256847,83.31135891359446
2.59,-0.0265561698103608,83.46410047804443
2.6,-0.02502264451145264,83.76958360694438
2.61,-0.02487303228716892,83.92232517139436
2.62,-0.027304230931779416,83.76958360694438
2.63,-0.032652867949922504,85.11248744158857
2.64,-0.03022166930531201,85.02084250291858
2.65,-0.028688144006403852,84.62371443534865
2.66,-0.030820118202446904,84.62371443534865
2.67,-0.028987368454971296,84.34877961933869
2.68,-0.024255881861998563,83.37245553937446
2.69,-0.023040282539693317,83.0376460301001
2.7,-0.05051282722379192,82.57942133675019
2.71,-0.08911278108899241,81.72529050834592
2.72,0.11061953832977757,81.236517502106
2.73,0.588069549075208,80.93103437320605
2.74,0.8512935561743828,80.07690354480178
2.75,0.5763249894689357,79.89361366746182
2.76,0.1559520422877456,79.28386934217751
2.77,-0.0016831375231918819,79.10057946483755
2.78,-0.018776334147607213,78.58125814570764
2.79,-0.037085130094327796,78.24644863643329
2.8,-0.04501457798136511,78.12425538487331
2.81,-0.04454703978047847,77.84932056886335
2.82,-0.04471535353279766,77.29945093684344
2.83,-0.04684732772884071,77.4827408141834
2.84,-0.049278526373451204,76.8729964888991
2.85,-0.04959645235005412,76.59806167288914
2.86,-0.04912891414916748,76.56751335999915
2.87,-0.05004528902290528,76.2620302310992
2.88,-0.04912891414916748,75.7439308444849
2.89,-0.05004528902290528,75.86490216352927
2.9,-0.04882968970060004,75.34680277691496
2.91,-0.04181661668730053,75.37735108980495
2.92,-0.03448561769739811,74.98022302223501
2.93,-0.025789407160906722,74.61486520007067
2.94,-0.013427697129464124,74.43157532273071
2.95,-0.0015335252989081589,74.58431688718068
2.96,0.008079060111321033,74.49267194851069
2.97,0.016326433974961252,74.94967470934502
2.98,0.019692709021345015,75.6828342187049
2.99,0.0175420332972665,80.13800017058178
3.0,0.005348637018143091,88.10255630726128
3.01,-0.012361710031442598,98.72359373285475
3.02,-0.02120753279221771,108.64079802946274
3.03,-0.033868467272227754,116.36218959553788
3.04,-0.04669771550455699,119.74938652878053
3.05,-0.045164190205648824,119.90212809323052
3.06,-0.04593095285510291,118.52867594569634
3.07,-0.04608056507938663,116.69822103732784
3.08,-0.04164830293498134,116.51493115998787
3.09,-0.03859995386520049,113.8902201164795
3.1,-0.03661759189344116,110.1975400543369
3.11,-0.03295209239848995,106.84089143398424
3.12,-0.03220403127707134,103.54533943941158
3.13,-0.03371885504794403,101.10391827324317
3.14,-0.031886105300468426,98.75414204574476
3.15,-0.03295209239848995,97.13630339509061
3.16,-0.03510276812256847,95.3657231799865
3.17,-0.03661759189344116,93.93239633918793
3.18,-0.03966594096322201,92.65058913032374
3.19,-0.04501457798136511,91.91742962096386
3.2,-0.04471535353279766,91.0327504796696
3.21,-0.04959645235005412,90.4217842218697
3.22,-0.04853046525203259,88.98845738107114
3.23,-0.04424781533191102,88.22474955882126
3.24,-0.04211584113586798,87.27897379174702
3.25,-0.03874956608948421,86.7596524726171
3.26,-0.039067492066087124,85.84442501843284
3.27,-0.043481052682456944,85.08193912869858
3.28,-0.04486496575708138,84.16671167451432
3.29,-0.04073192806124354,83.92232517139436
3.3,-0.03753396676717896,82.97654940432011
3.31,-0.037085130094327796,83.00709771721012
3.32,-0.033868467272227754,83.00709771721012
3.33,-0.027154618707495692,83.0376460301001
3.34,-0.024255881861998563,83.00709771721012
3.35,-0.01984232124562874,83.0987426558801
3.36,-0.020141545694196187,82.97654940432011
3.37,-0.033270018375092865,82.73216290120016
3.38,-0.036467979669157435,82.54887302386018
3.39,-0.03371885504794403,83.0681943429901
3.4,-0.03280248017420623,82.88490446565012
3.41,-0.02913698067925502,83.0987426558801
3.42,-0.02532186896002009,82.91545277854013
3.43,-0.02623824383375789,82.97654940432011
3.44,-0.028220605805517218,82.91545277854013
3.45,-0.027154618707495692,83.92232517139436
3.46,-0.027304230931779416,83.37245553937446
3.47,-0.02410626963771484,83.43355216515444
3.48,-0.024573807838601473,82.91545277854013
3.49,-0.02930529443157421,82.15174495629024
3.5,-0.06027502485830483,81.69474219545593
3.51,-0.07858382080502542,81.45035569233596
3.52,0.16143159000213692,80.47403161237172
3.53,0.649878099232421,80.19909679636177
3.54,0.872033550765714,79.77142041590183
3.55,0.5604473921668257,78.64235477148762
3.56,0.14344072003201927,78.1548036977633
3.57,0.0035158872706674863,77.87986888175334
3.58,-0.007013073013299507,77.32999924973343
3.59,-0.019991933469912463,77.39109587551343
3.6,-0.031119342651014348,76.84244817600911
3.61,-0.03203571752475215,76.65915829866914
3.62,-0.028987368454971296,76.20093360531922
3.63,-0.028538531782120128,76.2620302310992
3.64,-0.026705782034644524,76.10928866664923
3.65,-0.025789407160906722,75.83435385063927
3.66,-0.02792138135694977,75.28570615113496
3.67,-0.026855394258928248,75.40789940269495
3.68,-0.024255881861998563,74.88857808356504
3.69,-0.018458408171004304,75.041319648015
3.7,-0.01404484755463448,74.58431688718068
3.71,-0.00824737386364022,74.33993038406072
3.72,-0.0010659870980215252,74.09554388094075
3.73,0.005647861466710536,73.88170569071079
3.74,0.01952439526902583,73.42348099736087
3.75,0.03676720411772488,73.42348099736087
3.76,0.04471535353279766,73.36360630409648
3.77,0.054477551167310574,73.8206090649308
3.78,0.05935864998456703,74.49267194851069
3.79,0.0564599131390699,80.16854848347177
3.8,0.04149869071069762,88.56078100061121
3.81,0.025639794936623,99.54717624836903
3.82,0.006863460789015784,109.46560247749261
3.83,-0.007630223438469864,116.78986597599783
3.84,-0.013577309353747846,119.32293208083621
3.85,-0.015877597302110084,119.10909389060625
3.86,-0.015559671325507174,117.73564174307207
3.87,-0.011894171830555965,115.53860708002362
3.88,-0.008546598312207667,112.18195845967097
3.89,-0.009462973185945469,108.82408790680272
3.9,-0.012062485582875152,105.10085953177013
3.91,-0.007013073013299507,102.41627379499735
3.92,-0.010080123611115824,99.82211106437897
3.93,-0.006713848564732062,97.56397977555055
3.94,-0.0019823619717593273,95.85449618622643
3.95,-0.006096698139561705,94.32830247424226
3.96,-0.010678572508250717,92.65058913032374
3.97,-0.008079060111321033,91.94797793385386
3.98,-0.005348637018143091,90.69671903787966
3.99,-0.007929447887037309,89.93423314814538
4.0,-0.008845822760775113,89.44546014190546
4.01,-0.005947085915277982,89.11065063263112
4.02,-0.006564236340448339,88.13310462015127
4.03,-0.009462973185945469,87.88994004954692
4.04,-0.005348637018143091,86.54703621490273
4.05,-0.005797473690994259,85.93606995710283
4.06,-0.005348637018143091,84.95974587713859
4.07,-0.008079060111321033,84.37932793222869
4.08,-0.010528960283966994,83.37245553937446
4.09,-0.009313360961661746,82.60996964964018
4.1,-0.005498249242426814,82.09064833051026
4.11,0.002599512396929684,81.81693544701591
4.12,0.0051803232658239025,81.236517502106
4.13,0.010828184732534439,81.45035569233596
4.14,0.012660934480010044,81.29761412788599
4.15,0.001215599322305248,81.41980737944597
4.16,-0.006265011891880893,81.29761412788599
4.17,-0.004263948392086101,81.81693544701591
4.18,-0.00716268523758323,81.69474219545593
4.19,-0.005498249242426814,81.75583882123591
4.2,-0.002749124621213407,81.66419388256593
4.21,0.00014961222428372284,81.7863871341259
4.22,-0.002281586420326773,81.63364556967593
4.23,-0.0004488366728511685,82.70161458831016
4.24,-0.0006171504251703566,82.54887302386018
4.25,-0.0006171504251703566,82.21284158207024
4.26,0.0031979612940645752,81.69474219545593
4.27,-0.0006171504251703566,81.32816244077598
4.28,-0.035401992571135917,80.83938943453606
4.29,-0.05172842654609717,80.5656765510417
4.3,0.18890413468623554,79.74087210301184
4.31,0.6662045332073823,79.4366109066275
4.32,0.8769146495829704,78.48961320703765
4.33,0.5595310172930879,78.27577501680769
4.34,0.14755505619982165,77.78822394308335
4.35,0.013577309353747846,77.4827408141834
4.36,0.00716268523758323,76.9035448017891
4.37,-0.006564236340448339,76.72025492444914
4.38,-0.015709283549790898,76.56751335999915
4.39,-0.0175420332972665,76.62860998577915
4.4,-0.020908308343650265,76.07874035375923
4.41,-0.0166256584235287,75.80502747026487
4.42,-0.009762197634512915,75.77447915737488
4.43,-0.014792908676053094,75.37735108980495
4.44,-0.018608020395288027,74.15664050672075
4.45,-0.01694358440013161,74.27883375828073
4.46,-0.015260446876939728,73.72896412626082
4.47,-0.015110834652656006,73.8511573778208
4.48,-0.009313360961661746,73.36360630409648
4.49,-0.003815111719234932,73.45402931025086
4.5,0.006096698139561705,72.93592992363655
4.51,0.019991933469912463,72.78318835918657
4.52,0.029903743328709098,72.32496366583665
4.53,0.04013347916410865,72.75264004629658
4.54,0.050363214999508195,72.66099510762659
4.55,0.05814305066226178,73.9122540036008
4.56,0.06134101195632636,78.1548036977633
4.57,0.059508262208850755,78.36741995547766
4.58,0.0398342547155412,78.12425538487331
4.59,0.022890670315409593,86.33319802467277
4.6,0.011744559606272242,96.70862701463068
4.61,0.00014961222428372284,106.68814986953426
4.62,-0.009163748737378023,113.7680268649195
4.63,-0.013577309353747846,117.06480079200777
4.64,-0.014961222428372282,117.03425247911778
4.65,-0.011894171830555965,115.93451321507796
4.66,-0.008696210536491389,113.70693023913952
4.67,-0.0035158872706674863,107.14637456288419
4.68,-0.0035158872706674863,106.93253637265423
4.69,-0.0010659870980215252,103.66753269097156
4.7,-0.0007667626494540794,100.64569357989325
4.71,-0.0007667626494540794,97.95988591060488
4.72,-0.0030483490697808526,95.48791643154648
4.73,-0.005498249242426814,93.87129971340795
4.74,-0.00961258541022919,92.25346106275381
4.75,-0.010828184732534439,90.84946060232964
4.76,-0.007779835662753587,89.8425882094754
4.77,-0.005947085915277982,88.68297425217119
4.78,-0.009163748737378023,88.10255630726128
4.79,-0.013427697129464124,87.43171535619699
4.8,-0.011744559606272242,86.97349066284707
4.81,-0.011744559606272242,86.30264971178278
4.82,-0.007779835662753587,85.02084250291858
4.83,-0.00716268523758323,84.3194532389643
4.84,-0.011594947381988518,82.91545277854013
4.85,-0.017691645521550226,82.64051796253017
4.86,-0.012062485582875152,81.66419388256593
4.87,-0.007013073013299507,81.05322762476602
4.88,-0.007330998989902419,80.53512823815171
4.89,-0.004881098817256457,80.07690354480178
4.9,-0.0007667626494540794,80.07690354480178
4.91,0.002599512396929684,80.19909679636177
4.92,-0.0039647239435186546,80.0158069190218
4.93,-0.018458408171004304,80.26019342214175
4.94,-0.01922517082045838,79.64922716434185
4.95,-0.016326433974961252,79.83251704168183
4.96,-0.01907555859617466,79.71032379012185
4.97,-0.021824683217388067,79.74087210301184
4.98,-0.01984232124562874,79.71032379012185
4.99,-0.017691645521550226,79.80196872879183
5.0,-0.01952439526902583,81.29761412788599
5.01,-0.02105792056793399,80.99213099898604
5.02,-0.01785995927386941,80.41293498659174
5.03,-0.022591445866842145,80.26019342214175
5.04,-0.02640655758607708,80.10745185769179
5.05,-0.033569242823660306,79.49648559989188
5.06,-0.07690068328183353,79.00893452616756
5.07,-0.03493445437024928,78.64235477148762
5.08,0.30303956028668055,77.72712731730337
5.09,0.7373077427982215,77.4827408141834
5.1,0.7533349523246153,77.36054756262342
5.11,0.34835336271661316,76.68970661155913
5.12,0.04104985403784645,76.13983697953923
5.13,-0.014643296451769372,75.83435385063927
5.14,-0.02502264451145264,75.28570615113496
5.15,-0.0389178798418034,74.98022302223501
5.16,-0.04149869071069762,74.91912639645503
5.17,-0.045781340630819185,74.58431688718068
5.18,-0.04608056507938663,74.12609219383076
5.19,-0.044397427556194746,74.4010270098407
5.2,-0.04791331482686224,73.8206090649308
5.21,-0.05126088834521053,73.51512593603086
5.22,-0.04761409037829479,72.99702654941653
5.23,-0.043649366434776134,73.05812317519653
5.24,-0.04424781533191102,72.99702654941653
5.25,-0.04211584113586798,72.81373667207657
5.26,-0.03601914299630627,72.26386704005665
5.27,-0.02792138135694977,72.20277041427667
5.28,-0.02333950698826076,72.11234740812228
5.29,-0.011894171830555965,71.92905753078232
5.3,-0.0002992244485674457,71.50138115032237
5.31,0.0028987368454971296,71.65412271477236
5.32,0.013128472680896678,71.74576765344234
5.33,0.02365743296486367,71.86796090500232
5.34,0.02395665741343112,72.99702654941653
5.35,0.016326433974961252,77.4827408141834
5.36,-0.0006171504251703566,77.32999924973343
5.37,-0.018776334147607213,77.4827408141834
5.38,-0.03463522992168183,77.42164418840342
5.39,-0.046379789527954074,85.05139081580857
5.4,-0.04791331482686224,95.00036535782216
5.41,-0.04974606457433784,104.76605002249578
5.42,-0.04608056507938663,111.84592701788102
5.43,-0.04684732772884071,108.3365368330784
5.44,-0.04791331482686224,104.67440508382579
5.45,-0.04424781533191102,101.10391827324317
5.46,-0.04043270361267609,101.07336996035318
5.47,-0.041966228911584254,101.13446658613316
5.48,-0.039366716514654565,97.92933759771489
5.49,-0.033569242823660306,95.61010968310646
5.5,-0.03525238034685219,93.32143008138803
5.51,-0.039067492066087124,91.64249480495391
5.52,-0.03845034164091676,89.8425882094754
5.53,-0.039067492066087124,88.65242593928119
5.54,-0.04013347916410865,87.27897379174702
5.55,-0.03815111719234932,86.69977777935271
5.56,-0.03631836744487372,85.81387670554285
5.57,-0.0398342547155412,85.14303575447856
5.58,-0.043481052682456944,84.59316612245865
5.59,-0.04273299156103833,83.86122854561437
5.6,-0.04273299156103833,83.0376460301001
5.61,-0.041966228911584254,82.64051796253017
5.62,-0.04303221600960578,81.60309725678594
5.63,-0.04149869071069762,80.96158268609604
5.64,-0.039067492066087124,80.07690354480178
5.65,-0.03295209239848995,79.77142041590183
5.66,-0.023807045189147395,79.3449659679575
5.67,-0.018776334147607213,79.10057946483755
5.68,-0.02105792056793399,78.97838621327756
5.69,-0.03280248017420623,79.10057946483755
5.7,-0.04273299156103833,78.88674127460757
5.71,-0.0389178798418034,79.07003115194755
5.72,-0.03783319121574641,78.97838621327756
5.73,-0.035551604795419633,79.07003115194755
5.74,-0.03493445437024928,79.25332102928752
5.75,-0.03585082924398708,79.4366109066275
5.76,-0.0380015049680656,79.28386934217751
5.77,-0.03845034164091676,80.53512823815171
5.78,-0.04013347916410865,80.44348329948173
5.79,-0.039983866939824926,80.13800017058178
5.8,-0.03845034164091676,79.71032379012185
5.81,-0.038300729416633046,79.3755142808475
5.82,-0.05234557697126752,79.3449659679575
5.83,-0.09627546632657563,79.03948283905756
5.84,-0.02395665741343112,78.52016151992764
5.85,0.3672793090885041,77.94096550753333
5.86,0.7844542949756297,77.66603069152337
5.87,0.7137999220576416,77.4827408141834
5.88,0.271751903883347,76.9340931146791
5.89,-0.0031979612940645752,76.2620302310992
5.9,-0.03921710429037085,75.7133825315949
5.91,-0.046379789527954074,75.43844771558494
5.92,-0.06379091212897232,74.49267194851069
5.93,-0.07172036001600963,74.73583651911505
5.94,-0.06805486052105841,73.75951243915081
5.95,-0.06317376170380196,73.9122540036008
5.96,-0.06332337392808568,73.39415461698647
5.97,-0.06897123539479622,73.05812317519653
5.98,-0.07568508395952829,72.53880185606661
5.99,-0.07888304525359285,72.35551197872664
6.0,-0.0775178337070039,72.20277041427667
6.01,-0.07385233421205267,71.9901541565623
6.02,-0.06958838581996658,71.44028452454239
6.03,-0.06743771009588806,71.16534970853243
6.04,-0.05920903776028331,70.95273345081807
6.05,-0.055693150489615824,70.67779863480811
6.06,-0.05187803877038089,70.7083469476981
6.07,-0.04379897865905986,70.79999188636809
6.08,-0.03280248017420623,70.2195739414582
6.09,-0.02640655758607708,70.67779863480811
6.1,-0.022591445866842145,71.01260814408246
6.11,-0.023807045189147395,72.69154342051658
6.12,-0.038300729416633046,78.12425538487331
6.13,-0.05356117629357277,87.09568391440705
6.14,-0.07340349753920151,97.10575508220062
6.15,-0.08621404424349528,105.86456735402
6.16,-0.09277828058394362,111.81537870499103
6.17,-0.09644378007889483,113.8902201164795
6.18,-0.09384426768196515,112.91389603651525
6.19,-0.09582662965372447,111.93757195655101
6.2,-0.0933767294810785,109.43505416460262
6.21,-0.09047799263558137,106.35211842774432
6.22,-0.09079591861218429,102.62889005271172
6.23,-0.08453090672030339,99.669369499929
6.24,-0.07979942012733066,96.73917532752068
6.25,-0.0811833332019551,94.69488222892221
6.26,-0.07888304525359285,92.62004081743375
6.27,-0.06958838581996658,91.0938471054496
6.28,-0.06973799804425031,89.41491182901547
6.29,-0.07538585951096084,88.28584618460125
6.3,-0.07781705815557133,87.401167043307
6.31,-0.07446948463722304,86.69977777935271
6.32,-0.07003722249281774,86.1499081473328
6.33,-0.07003722249281774,85.5389418895329
6.34,-0.07003722249281774,84.9291975642486
6.35,-0.06775563607249098,84.71535937401863
6.36,-0.06394052435325605,83.80013191983439
6.37,-0.07140243403940671,83.55574541671442
6.38,-0.07690068328183353,83.37245553937446
6.39,-0.06942007206764739,83.52519710382442
6.4,-0.06317376170380196,82.57942133675019
6.41,-0.05675913758763735,81.75583882123591
6.42,-0.049278526373451204,80.83938943453606
6.43,-0.04912891414916748,80.65732148971169
6.44,-0.04623017730367035,80.53512823815171
6.45,-0.04959645235005412,80.65732148971169
6.46,-0.05767551246137515,80.47403161237172
6.47,-0.06012541263402111,80.6267731768217
6.48,-0.0564599131390699,79.77142041590183
6.49,-0.055393926041048376,79.86306535457182
6.5,-0.052495189195551246,80.10745185769179
6.51,-0.05264480141983497,80.16854848347177
6.52,-0.05294402586840241,80.16854848347177
6.53,-0.053093638092686135,80.19909679636177
6.54,-0.054477551167310574,81.236517502106
6.55,-0.05356117629357277,81.41980737944597
6.56,-0.052495189195551246,81.26706581499599
6.57,-0.0483621514997134,80.99213099898604
6.58,-0.05341156406928905,80.5656765510417
6.59,-0.09857575427493788,80.5962248639317
6.6,-0.10407400351736469,79.80196872879183
6.61,0.17700996285567958,79.3449659679575
6.62,0.6570407844700042,78.52016151992764
6.63,0.8140588138557714,78.2159003235433
6.64,0.45899160257442617,77.78822394308335
6.65,0.0688216231705125,77.08561274661348
6.66,-0.03585082924398708,76.59806167288914
6.67,-0.04181661668730053,76.3231268568792
6.68,-0.05507600006444546,76.20093360531922
6.69,-0.06637172299786653,75.95654710219925
6.7,-0.06317376170380196,75.28570615113496
6.71,-0.055992374938183265,74.94967470934502
6.72,-0.059975800409737386,74.88857808356504
6.73,-0.059508262208850755,74.67473989333506
6.74,-0.06087347375543972,74.4621236356207
6.75,-0.05844227511082923,74.27883375828073
6.76,-0.059059425535999584,73.7900607520408
6.77,-0.05844227511082923,73.8206090649308
6.78,-0.056609525363353626,73.75951243915081
6.79,-0.052794413644118694,73.48457762314086
6.8,-0.04623017730367035,73.39415461698647
6.81,-0.03661759189344116,73.02757486230654
6.82,-0.02640655758607708,72.5693501689566
6.83,-0.015709283549790898,72.87483329785655
6.84,-0.004114336167802378,72.26386704005665
6.85,0.005498249242426814,72.35551197872664
6.86,0.012810546704293766,72.6304467947366
6.87,0.016793972175847886,73.94280231649078
6.88,0.011445335157704796,78.97838621327756
6.89,-0.0013652115465889708,79.00893452616756
6.9,-0.01907555859617466,87.67610185931696
6.91,-0.027622156908382326,98.02098253638486
6.92,-0.035551604795419633,107.38953913348855
6.93,-0.04471535353279766,113.52364036179955
6.94,-0.04776370260257851,115.81354189603358
6.95,-0.04669771550455699,115.47751045424363
6.96,-0.041199466262130176,114.22625155826944
6.97,-0.03723474231861152,111.90702364366102
6.98,-0.039983866939824926,109.03792609703268
6.99,-0.0398342547155412,105.98676060557997
7.0,-0.037384354542895244,102.62889005271172
7.01,-0.037683578991462685,100.03594925460894
7.02,-0.03753396676717896,97.92933759771489
7.03,-0.038300729416633046,96.0072377506764
7.04,-0.033569242823660306,93.74910646184796
7.05,-0.03631836744487372,92.43675094009377
7.06,-0.04134907848641389,91.42987854723954
7.07,-0.04593095285510291,90.33136121571532
7.08,-0.049278526373451204,89.44546014190546
7.09,-0.04501457798136511,88.6218776263912
7.1,-0.04669771550455699,87.85939173665692
7.11,-0.04974606457433784,87.46226366908698
7.12,-0.04593095285510291,86.21100477311279
7.13,-0.04684732772884071,85.44851888337851
7.14,-0.0483621514997134,84.53206949667866
7.15,-0.050363214999508195,83.92232517139436
7.16,-0.04853046525203259,82.97654940432011
7.17,-0.04654810328027326,82.21284158207024
7.18,-0.045781340630819185,81.69474219545593
7.19,-0.045781340630819185,80.99213099898604
7.2,-0.042882603785322056,80.83938943453606
7.21,-0.037384354542895244,80.93103437320605
7.22,-0.039366716514654565,80.90048606031606
7.23,-0.03493445437024928,80.93103437320605
7.24,-0.039983866939824926,80.83938943453606
7.25,-0.05172842654609717,80.5962248639317
7.26,-0.05172842654609717,80.44348329948173
7.27,-0.04454703978047847,80.96158268609604
7.28,-0.037085130094327796,80.86993774742606
7.29,-0.03067050597816318,80.96158268609604
7.3,-0.030520893753879456,80.83938943453606
7.31,-0.031886105300468426,81.02267931187603
7.32,-0.03371885504794403,81.175420876326
7.33,-0.030371281529595732,80.96158268609604
7.34,-0.027622156908382326,80.86993774742606
7.35,-0.024255881861998563,80.65732148971169
7.36,-0.019374783044742105,80.04635523191179
7.37,-0.021506757240785157,79.80196872879183
7.38,-0.052794413644118694,79.80196872879183
7.39,-0.08972993151416277,79.80196872879183
7.4,0.0942931043548163,79.64922716434185
7.41,0.5720610410768496,79.4060625937375
7.42,0.8805801490779216,78.55070983281763
7.43,0.6416307253687809,78.36741995547766
7.44,0.1893529713590867,77.75767563019336
7.45,-0.008696210536491389,76.29257854398921
7.46,-0.01830879594672058,75.6828342187049
7.47,-0.026705782034644524,75.34680277691496
7.48,-0.03601914299630627,75.34680277691496
7.49,-0.03723474231861152,74.94967470934502
7.5,-0.041199466262130176,74.98022302223501
7.51,-0.043649366434776134,74.64419158044507
7.52,-0.0398342547155412,74.43157532273071
7.53,-0.044397427556194746,74.24828544539074
7.54,-0.04563172840653546,74.24828544539074
7.55,-0.0389178798418034,73.88170569071079
7.56,-0.03921710429037085,73.42348099736087
7.57,-0.0398342547155412,73.60677087470084
7.58,-0.03661759189344116,72.93592992363655
7.59,-0.02945490665585793,73.11921980097652
7.6,-0.01952439526902583,72.59989848184661
7.61,-0.011894171830555965,72.38606029161663
7.62,0.0,72.20277041427667
7.63,0.012660934480010044,72.32496366583665
7.64,0.02197429544167179,72.50825354317662
7.65,0.030969730426730624,73.42348099736087
7.66,0.03463522992168183,73.33305799120649
7.67,0.03312040615080914,73.54567424892085
7.68,0.02333950698826076,78.1548036977633
7.69,0.009462973185945469,86.7596524726171
7.7,-0.01037934805968327,97.01411014353063
7.71,-0.02365743296486367,106.68814986953426
7.72,-0.02945490665585793,113.46254373601955
7.73,-0.027472544684098602,116.36218959553788
7.74,-0.02395665741343112,116.2705446568679
7.75,-0.02487303228716892,115.17202732534368
7.76,-0.02350782074057995,112.6084129076153
7.77,-0.021824683217388067,110.38082993167686
7.78,-0.022273519890239235,106.99363299843421
7.79,-0.020590382367047355,104.06343882602589
7.8,-0.018925946371890937,100.61514526700324
7.81,-0.017392421072982778,96.37381750535634
7.82,-0.0166256584235287,94.60323729025222
7.83,-0.02242313211452296,93.26033345560805
7.84,-0.025172256735736365,91.94797793385386
7.85,-0.03067050597816318,90.72726735076965
7.86,-0.035551604795419633,89.78149158369541
7.87,-0.03510276812256847,89.11065063263112
7.88,-0.031119342651014348,88.6218776263912
7.89,-0.028388919557836408,88.25529787171126
7.9,-0.030520893753879456,87.37061873041701
7.91,-0.03371885504794403,87.00403897573706
7.92,-0.030053355552992822,86.30264971178278
7.93,-0.030520893753879456,85.5389418895329
7.94,-0.03510276812256847,84.59316612245865
7.95,-0.03448561769739811,83.92232517139436
7.96,-0.03312040615080914,82.94600109143012
7.97,-0.031119342651014348,82.27393820785024
7.98,-0.028688144006403852,81.29761412788599
7.99,-0.017691645521550226,80.99213099898604
8.0,-0.011295722933421072,80.83938943453606
8.01,-0.011445335157704796,80.96158268609604
8.02,-0.014493684227485648,80.80884112164607
8.03,-0.022890670315409593,80.6267731768217
8.04,-0.0317364930761847,80.44348329948173
8.05,-0.03158688085190098,80.53512823815171
8.06,-0.025789407160906722,80.47403161237172
8.07,-0.02333950698826076,80.6267731768217
8.08,-0.02395665741343112,80.47403161237172
8.09,-0.025639794936623,80.5656765510417
8.1,-0.02930529443157421,81.32816244077598
8.11,-0.03203571752475215,81.35871075366597
8.12,-0.030820118202446904,81.32816244077598
8.13,-0.02365743296486367,81.29761412788599
8.14,-0.025639794936623,80.80884112164607
8.15,-0.027304230931779416,80.68664787008609
8.16,-0.04684732772884071,80.16854848347177
8.17,-0.09079591861218429,79.80196872879183
8.18,0.029903743328709098,79.28386934217751
8.19,0.46768781311091756,79.10057946483755
8.2,0.8569414176410934,78.48961320703765
8.21,0.7148659091556632,77.78822394308335
8.22,0.25192828416575375,77.29945093684344
8.23,0.004432262144405288,77.05506443372347
8.24,-0.014643296451769372,76.53696504710916
8.25,-0.02913698067925502,76.3231268568792
8.26,-0.04959645235005412,75.6828342187049
8.27,-0.052495189195551246,75.43844771558494
8.28,-0.05126088834521053,74.91912639645503
8.29,-0.04821253927542968,75.01077133512501
8.3,-0.04546341465421627,74.55376857429069
8.31,-0.04501457798136511,74.64419158044507
8.32,-0.050194901247189005,74.18718881961074
8.33,-0.045164190205648824,73.7900607520408
8.34,-0.04546341465421627,73.7900607520408
8.35,-0.04776370260257851,73.48457762314086
8.36,-0.04791331482686224,73.30250967831648
8.37,-0.041199466262130176,73.51512593603086
8.38,-0.03341963059937659,73.39415461698647
8.39,-0.025172256735736365,73.48457762314086
8.4,-0.016027209526393808,72.99702654941653
8.41,-0.00503071104154018,73.14976811386651
8.42,0.003815111719234932,72.93592992363655
8.43,0.006096698139561705,72.66099510762659
8.44,0.014961222428372282,76.56751335999915
8.45,0.017242808848699054,83.86122854561437
8.46,0.004881098817256457,83.83068023272438
8.47,-0.007929447887037309,93.565816584508
8.48,-0.02274105809112587,103.51479112652157
8.49,-0.03448561769739811,111.57099220187106
8.5,-0.04791331482686224,115.75244527025359
8.51,-0.0474457766259756,116.2705446568679
8.52,-0.04333144045817322,115.44696214135364
8.53,-0.05051282722379192,113.92076842936949
8.54,-0.0483621514997134,111.08221919563115
8.55,-0.045164190205648824,107.93940876550846
8.56,-0.039983866939824926,104.79659833538577
8.57,-0.03783319121574641,101.5303727211875
8.58,-0.04149869071069762,99.1194998679091
8.59,-0.0398342547155412,96.80027195330067
8.6,-0.0380015049680656,95.09201029649215
8.61,-0.04013347916410865,93.504719958728
8.62,-0.043649366434776134,91.82578468229387
8.63,-0.04501457798136511,90.84946060232964
8.64,-0.04531380242993255,89.78149158369541
8.65,-0.04974606457433784,89.1717472584111
8.66,-0.05217726321894833,88.56078100061121
8.67,-0.04669771550455699,87.79829511087694
8.68,-0.049278526373451204,87.43171535619699
8.69,-0.04791331482686224,87.12623222729704
8.7,-0.04714655217740815,86.1193598344428
8.71,-0.05126088834521053,85.4790671962685
8.72,-0.05217726321894833,84.59316612245865
8.73,-0.05217726321894833,83.86122854561437
8.74,-0.05096166389664309,82.91545277854013
8.75,-0.04684732772884071,82.18229326918025
8.76,-0.04303221600960578,81.66419388256593
8.77,-0.039983866939824926,81.29761412788599
8.78,-0.03418639324883067,80.83938943453606
8.79,-0.03341963059937659,80.86993774742606
8.8,-0.028538531782120128,80.93103437320605
8.81,-0.028837756230687576,80.96158268609604
8.82,-0.04134907848641389,80.99213099898604
8.83,-0.04821253927542968,81.29761412788599
8.84,-0.04149869071069762,81.205969189216
8.85,-0.03510276812256847,81.29761412788599
8.86,-0.03418639324883067,81.29761412788599
8.87,-0.040283091388392374,81.35871075366597
8.88,-0.039983866939824926,81.66419388256593
8.89,-0.041966228911584254,81.81693544701591
8.9,-0.044098203107627305,82.09064833051026
8.91,-0.04333144045817322,82.21284158207024
8.92,-0.039067492066087124,81.175420876326
8.93,-0.0398342547155412,80.96158268609604
8.94,-0.039366716514654565,80.86993774742606
8.95,-0.06409013657753976,80.6267731768217
8.96,-0.10543921506395366,79.74087210301184
8.97,0.06728809787160434,79.46715921951748
8.98,0.5444388841684673,78.94783790038757
8.99,0.8622713531312011,78.64235477148762
9.0,0.6228730927492091,77.75767563019336
9.01,0.16997818831434458,77.5132891270734
9.02,-0.021506757240785157,77.02573805334909
9.03,-0.03312040615080914,76.72025492444914
9.04,-0.04684732772884071,76.17038529242922
9.05,-0.057376288012807704,75.89545047641927
9.06,-0.060723861531156,75.37735108980495
9.07,-0.062406999054347885,74.94967470934502
9.08,-0.06027502485830483,75.01077133512501
9.09,-0.05675913758763735,74.58431688718068
9.1,-0.05675913758763735,74.4621236356207
9.11,-0.05965787443313448,74.18718881961074
9.12,-0.05492638784016174,74.12609219383076
9.13,-0.05584276271389954,73.88170569071079
9.14,-0.0555435382653321,73.42348099736087
9.15,-0.05187803877038089,73.02757486230654
9.16,-0.04211584113586798,72.53880185606661
9.17,-0.03341963059937659,72.78318835918657
9.18,-0.02410626963771484,72.17344403390227
9.19,-0.016027209526393808,71.92905753078232
9.2,-0.002281586420326773,71.80686427922232
9.21,0.006265011891880893,71.9901541565623
9.22,0.016476046199244976,71.89850921789231
9.23,0.024723420062885196,72.72209173340659
9.24,0.018776334147607213,76.17038529242922
9.25,0.006265011891880893,83.92232517139436
9.26,-0.007630223438469864,93.81020308762795
9.27,-0.024723420062885196,103.94124557446591
9.28,-0.03845034164091676,111.93757195655101
9.29,-0.04181661668730053,115.63025201869361
9.3,-0.05264480141983497,116.2705446568679
9.31,-0.05814305066226178,115.20257563823368
9.32,-0.05492638784016174,112.97499266229524
9.33,-0.04912891414916748,110.35028161878687
9.34,-0.04593095285510291,106.96308468554422
9.35,-0.037683578991462685,103.57588775230157
9.36,-0.03693551787004407,100.61514526700324
9.37,-0.046996939953124435,97.99043422349487
9.38,-0.045781340630819185,97.95988591060488
9.39,-0.043181828233889503,98.05153084927487
9.4,-0.04149869071069762,97.8071443461549
9.41,-0.043481052682456944,97.99043422349487
9.42,-0.04073192806124354,95.85449618622643
9.43,-0.04471535353279766,93.90184802629794
9.44,-0.0483621514997134,92.19236443697382
9.45,-0.04654810328027326,91.0938471054496
9.46,-0.043481052682456944,86.21100477311279
9.47,-0.05081205167235937,85.93606995710283
9.48,-0.053710788517856496,84.9291975642486
9.49,-0.04791331482686224,84.3194532389643
9.5,-0.04303221600960578,83.34190722648445
9.51,-0.04608056507938663,82.64051796253017
9.52,-0.0483621514997134,82.15174495629024
9.53,-0.04623017730367035,81.41980737944597
9.54,-0.03966594096322201,80.80884112164607
9.55,-0.03753396676717896,80.5656765510417
9.56,-0.03951632873893829,80.13800017058178
9.57,-0.03493445437024928,80.22964510925176
9.58,-0.03250325572563879,80.13800017058178
9.59,-0.048680077476316315,80.16854848347177
9.6,-0.05631030091478618,80.10745185769179
9.61,-0.052794413644118694,80.16854848347177
9.62,-0.05004528902290528,80.07690354480178
9.63,-0.05051282722379192,80.22964510925176
9.64,-0.0474457766259756,80.47403161237172
9.65,-0.05081205167235937,80.65732148971169
9.66,-0.05477677561587802,80.53512823815171
9.67,-0.054477551167310574,80.53512823815171
9.68,-0.053093638092686135,82.02955170473027
9.69,-0.05004528902290528,81.75583882123591
9.7,-0.052495189195551246,81.63364556967593
9.71,-0.05432793894302685,81.29761412788599
9.72,-0.07964980790304693,80.80884112164607
9.73,-0.10497167686306702,80.47403161237172
9.74,0.10224125376988909,80.04635523191179
9.75,0.5673295544838769,79.80196872879183
9.76,0.808859789061912,79.3755142808475
9.77,0.5242973384742712,79.00893452616756
9.78,0.11306943850242353,78.2159003235433
9.79,-0.025789407160906722,77.91041719464334
9.8,-0.0380015049680656,77.39109587551343
9.81,-0.05507600006444546,76.99518974045908
9.82,-0.06912084761907994,76.9340931146791
9.83,-0.0679052482967747,76.2620302310992
9.84,-0.06652133522215026,76.2620302310992
9.85,-0.06317376170380196,76.23148191820921
9.86,-0.062406999054347885,75.7439308444849
9.87,-0.06134101195632636,75.43844771558494
9.88,-0.060723861531156,75.22460952535498
9.89,-0.059508262208850755,75.01077133512501
9.9,-0.058891111783680394,74.58431688718068
9.91,-0.05631030091478618,74.55376857429069
9.92,-0.05844227511082923,74.09554388094075
9.93,-0.055693150489615824,73.88170569071079
9.94,-0.04394859088334358,73.7900607520408
9.95,-0.03463522992168183,73.48457762314086
9.96,-0.027304230931779416,73.36360630409648
9.97,-0.016793972175847886,73.48457762314086
9.98,-0.010828184732534439,73.33305799120649
9.99,-0.005348637018143091,74.18718881961074
