time_s,ECG1,ECG2,NIBP
0.0,-0.05021963979332731,0.01120573087622625,97.361881649169
0.01,-0.027036278210047032,-0.0026887537331305705,97.35043754252916
0.02,-0.056608236593265346,0.0077243387593404255,97.28406172401804
0.03,-0.029934198407957066,0.0013676897602051456,97.1604653723077
0.04,-0.060065982283953455,0.00425848857154784,97.0254249139575
0.05,-0.03342487500998506,-0.005579552544473265,96.77823221053677
0.06,-0.06414941529009942,0.0002020450782121238,96.48526308055668
0.07,-0.04152587919959721,-0.014267490907594589,96.18313866526469
0.08,-0.06414941529009942,0.0013676897602051456,95.80090550349378
0.09,-0.04211863560371517,-0.011361150167158654,95.36145180852363
0.1,-0.06589475359111341,-0.0009480576746876578,94.8899546149619
0.11,-0.04383104299338928,-0.012526794849151675,94.3406374962492
0.12,-0.07050508117869755,-0.0015231090511375485,93.75698805761697
0.13,-0.04383104299338928,-0.010211047414258871,93.23971443749583
0.14,-0.07514833967762159,-0.0050045011680233745,92.75677313729426
0.15,-0.04557638129440328,-0.011951743472701785,92.30816415701223
0.16,-0.06760716098078752,-0.007320248602916178,91.88015456868193
0.17,-0.04383104299338928,-0.010786098790708763,91.45443380167958
0.18,-0.06935249928180152,-0.0009480576746876578,91.03786831998913
0.19,-0.04383104299338928,-0.00963599603780898,90.63503576626648
0.2,-0.06470924078287749,0.00425848857154784,90.26424671113541
0.21,-0.031086780304853102,-0.0015231090511375485,89.83623712280512
0.22,-0.007310662317454861,0.022784468050690267,89.38762814252307
0.23,0.019363375867853416,0.032622509166711375,89.00539498075216
0.24,0.042546737451133694,0.019878127310254335,88.73531406405175
0.25,0.10633391271649435,0.03319756054316127,88.49956546727088
0.26,0.050087916147967766,0.014671581064018837,88.26381687049002
0.27,0.011822197171019348,-0.023514938718072562,87.97313656183789
0.28,-0.06760716098078752,-0.012526794849151675,87.66872332521794
0.29,-0.06355665888598146,-0.032777928457643775,87.38719830187769
0.3,-0.10007703956191587,-0.030462181022750973,87.13085031314509
0.31,-0.07923177268376755,-0.03220287708119388,86.90425700167611
0.32,-0.1047202980608399,-0.031627825704744,86.71428483145463
0.33,-0.0855874385723657,-0.038559526080329164,86.48998034131361
0.34,-0.12675107774722416,-0.018308392471837066,86.2198994246132
0.35,-0.17545589561891667,0.0818127147468169,85.93837440127295
0.36,0.1353131146955947,0.0968573021090735,85.63624998598097
0.37,0.8658853827709825,-0.14157143211032583,85.38905728256026
0.38,0.8003858001159477,-0.20465612229978816,85.19908511233879
0.39,-0.018902343109095002,-0.15315016928478983,84.9953800141495
0.4,-0.34534646722139245,0.0025177925131049275,84.81685195056787
0.41,-0.2746108696633157,0.06328673526767446,84.60170274573873
0.42,-0.20038459550321094,0.0794969673119241,84.43461878879695
0.43,-0.12270057565241807,0.01063067949977636,84.3110224370866
0.44,-0.12675107774722416,-0.006154603920923155,84.09816205358543
0.45,-0.1082109746628679,-0.01484254228404448,83.82808113688502
0.46,-0.12793659055546008,-0.01484254228404448,83.58088843346431
0.47,-0.10936355655976394,-0.020624139906729868,83.3565839433233
0.48,-0.12849641604823814,-0.018883443848286954,83.14372355982212
0.49,-0.1082109746628679,-0.016567696413394152,82.92857435499299
0.5,-0.12500573944621016,-0.013101846225601566,82.66078225962055
0.51,-0.1082109746628679,-0.01541759366049437,82.3792572362803
0.52,-0.12154799375552204,-0.0050045011680233745,82.07484399966035
0.53,-0.10587287995773594,-0.010211047414258871,81.73838726444882
0.54,-0.11980265545450804,-0.0067296552973730465,81.45686224110857
0.55,-0.1029749597598259,-0.007895299979366069,81.25544596424724
0.56,-0.11631197885248004,0.0013676897602051456,81.24400185760739
0.57,-0.09717911936400583,0.0002020450782121238,81.73838726444882
0.58,-0.1099563129638819,0.008889983441333448,83.18721116505354
0.59,-0.09023069707128972,0.008314932064883556,85.9955949344722
0.6,-0.09082345347540768,0.026250318238482853,90.12920625278521
0.61,-0.06530199718699545,0.029141117049825548,94.77780236989139
0.62,-0.060065982283953455,0.05170799809321045,99.02356593327491
0.63,-0.021800263307005036,0.06849328151390997,102.5277513863963
0.64,-0.012546677220496856,0.08411292025261646,105.10038655903409
0.65,0.03734365345943159,0.0968573021090735,106.58354277955836
0.66,0.0547311746468918,0.1043795957902018,107.09852757835151
0.67,0.10228341062168829,0.11073624478933708,107.00926354656069
0.68,0.1161802552071205,0.10669534322509461,106.57209867291851
0.69,0.13880379129762271,0.08991005980439509,105.8968963811675
0.7,0.12777193599876063,0.07138408032525266,105.27891462261572
0.71,0.12372143390395457,0.04998284396386078,104.85319385561337
0.72,0.08545571492700615,0.03088181310826846,104.57166883227312
0.73,0.06398476073339998,0.015837225746011856,104.3473643421321
0.74,0.019363375867853416,0.00425848857154784,104.26954441698113
0.75,0.001942923769053319,-0.0032638051095804613,104.30158791557271
0.76,-0.031086780304853102,-0.011951743472701785,104.42518426728307
0.77,-0.035730038803777134,-0.01484254228404448,104.6174452588325
0.78,-0.062404076989085414,-0.025255634776515476,104.77537393046241
0.79,-0.04847430149231331,-0.01715828971893728,104.88752617553291
0.8,-0.06819991738490548,-0.027571382211408278,104.93101378076433
0.81,-0.06299683339320337,-0.023514938718072562,104.89897028217277
0.82,-0.07225041947971156,-0.019474037153830087,104.83030564233368
0.83,-0.060658738688071416,-0.012526794849151675,104.69526518398348
0.84,-0.06879267378902344,-0.012526794849151675,104.4160289819712
0.85,-0.060658738688071416,-0.010211047414258871,103.88731125521022
0.86,-0.06530199718699545,-0.0067296552973730465,103.14573314494808
0.87,-0.051964978094341314,-0.0009480576746876578,102.05625419283457
0.88,-0.05776081849016138,-0.0021137023566806796,100.63031850550954
0.89,-0.051372221690223346,-0.0067296552973730465,99.18149460490481
0.9,-0.05545565469636931,-0.003838856486030352,97.99130751436064
0.91,-0.04616913769852124,-0.0032638051095804613,97.2268411908188
0.92,-0.05891340038705742,-0.012526794849151675,96.49670718719652
0.93,-0.051372221690223346,-0.005579552544473265,96.02520999363479
0.94,-0.062404076989085414,-0.012526794849151675,96.03665410027465
0.95,-0.05311755999123735,-0.00847035135581596,96.30673501697505
0.96,-0.06414941529009942,-0.01715828971893728,96.65463585882642
0.97,-0.05891340038705742,-0.01541759366049437,96.89038445560729
0.98,-0.07225041947971156,-0.025830686152965365,96.94531616747855
0.99,-0.06994525568591949,-0.026996330834958386,96.84460802904789
1.0,-0.07630092157451762,-0.025830686152965365,96.66607996546627
1.01,-0.06355665888598146,-0.01715828971893728,96.43948665399728
1.02,-0.07458851418484351,-0.026996330834958386,96.17169455862485
1.03,-0.06935249928180152,-0.017733341095387174,95.8672813220049
1.04,-0.07574109608173955,-0.024680583400065584,95.56515690671291
1.05,-0.07514833967762159,-0.02410553202361569,95.2492995634531
1.06,-0.0855874385723657,-0.030462181022750973,94.8899546149619
1.07,-0.08038435458066359,-0.025255634776515476,94.4527897413197
1.08,-0.08212969288167758,-0.023514938718072562,93.91262790791889
1.09,-0.07979159817654563,-0.02410553202361569,93.3633107892062
1.1,-0.08618019497648366,-0.027571382211408278,92.85748127572492
1.11,-0.08328227477857363,-0.02814643358785817,92.40887229544289
1.12,-0.0890781151743937,-0.031037232399200865,91.99230681375244
1.13,-0.08094418007344166,-0.02236483596517278,91.5436978334704
1.14,-0.09197603537230373,-0.029312078269851192,91.10653295982821
1.15,-0.0890781151743937,-0.029312078269851192,90.66707926485806
1.16,-0.09138327896818577,-0.026996330834958386,90.20702617793617
1.17,-0.08268951837445566,-0.017733341095387174,89.81334890952542
1.18,-0.06530199718699545,-0.00963599603780898,89.47689217431389
1.19,-0.04152587919959721,-0.005579552544473265,89.14043543910236
1.2,-0.017749761212198966,0.012355833629126033,88.76964638397129
1.21,0.03385297685740359,0.010040086194233229,88.44463375539962
1.22,0.04139415555423766,0.01756237987536153,88.18599694533906
1.23,-0.0038529166267667514,-0.018308392471837066,87.9273601352785
1.24,-0.06935249928180152,-0.03624377864543636,87.69161153849764
1.25,-0.116904735256598,-0.044931717008557685,87.44441883507692
1.26,-0.1331396745471622,-0.05013826325479318,87.18578202501637
1.27,-0.13719017664196825,-0.04435666563210779,86.91570110831596
1.28,-0.14473135533880233,-0.05187895931323609,86.64790901294351
1.29,-0.1383427585388643,-0.040875273515221966,86.38927220288296
1.3,-0.14357877344190628,-0.04782251581990038,86.19701121133352
1.31,-0.19228359131359882,0.00425848857154784,85.9955949344722
1.32,-0.1662023095324085,0.09743235348552338,85.73695812441163
1.33,0.34116424148122687,0.0031083858186480586,85.46687720771122
1.34,0.9708361972112016,-0.2712066626770431,85.23112861093036
1.35,0.45421606011105814,-0.19481808118376706,84.9724918008698
1.36,-0.2989797440548319,-0.13753053054608336,84.73674320408894
1.37,-0.36797000331189467,0.020468720615797464,84.56965924714716
1.38,-0.2902859834611018,0.06617753407901716,84.42317468215711
1.39,-0.20038459550321094,0.044760755788532045,84.25380190388736
1.4,-0.16676213502518655,-0.024680583400065584,84.08671794694558
1.41,-0.15691579253456042,-0.026996330834958386,83.905901062036
1.42,-0.16040646913658843,-0.03624377864543636,83.70448478517467
1.43,-0.15286529043975436,-0.03335297983409367,83.4687361883938
1.44,-0.15286529043975436,-0.036834371950979494,83.23298759161294
1.45,-0.14588393723569837,-0.032777928457643775,83.00868310147192
1.46,-0.1453241117429203,-0.03798447470387927,82.66993754493242
1.47,-0.14298601703778832,-0.02988712964630108,82.3334808097209
1.48,-0.14298601703778832,-0.03220287708119388,81.98557996786953
1.49,-0.1383427585388643,-0.025255634776515476,81.63767912601816
1.5,-0.14762927553671235,-0.02988712964630108,81.43626284915683
1.51,-0.1482220319408303,-0.02872148496430806,81.32411060408633
1.52,-0.1453241117429203,-0.026405737529415257,81.28977828416679
1.53,-0.14183343514089228,-0.01541759366049437,81.47975045438825
1.54,-0.13952827134710022,-0.01541759366049437,82.27854909784963
1.55,-0.13952827134710022,-0.007320248602916178,84.29957833044675
1.56,-0.13373243095128015,-0.003838856486030352,87.87013960207926
1.57,-0.11920989905039008,0.009465034817783338,92.39742818880305
1.58,-0.1082109746628679,0.019878127310254335,96.8217198157682
1.59,-0.09253586086508181,0.03319756054316127,100.58454207895015
1.6,-0.06414941529009942,0.052298591398753584,103.60578623186997
1.61,-0.035730038803777134,0.06617753407901716,105.50321911275672
1.62,-0.0009549964288567161,0.07718121987703129,106.35694946808937
1.63,0.02746438005746556,0.09626670880353037,106.49198992643957
1.64,0.06398476073339998,0.06849328151390997,106.17842140450774
1.65,0.07501661603226205,0.10321395110820877,105.62681546446709
1.66,0.09299689362384021,0.05344869415165336,105.07749834575439
1.67,0.08315055113321408,0.06560248270256727,104.66093286406392
1.68,0.06632285543853193,0.009465034817783338,104.28098852362099
1.69,0.020515957764749453,0.015837225746011856,104.054395212152
1.7,-0.009648757022586822,-0.018308392471837066,103.91019946848992
1.71,-0.05021963979332731,-0.013101846225601566,103.84153482865084
1.72,-0.06470924078287749,-0.03624377864543636,103.89875536185006
1.73,-0.08963794066717176,-0.026405737529415257,104.04523992684013
1.74,-0.09661929387122777,-0.04724746444345049,104.25810031034129
1.75,-0.1064656363618539,-0.026405737529415257,104.4160289819712
1.76,-0.1064656363618539,-0.05013826325479318,104.47096069384246
1.77,-0.11749749166071596,-0.0339435731396368,104.49384890712216
1.78,-0.10705839276597187,-0.03798447470387927,104.4824048004823
1.79,-0.1099563129638819,-0.020624139906729868,104.4160289819712
1.8,-0.1029749597598259,-0.031627825704744,104.21232388378189
1.81,-0.10416047256806182,-0.010786098790708763,103.84153482865084
1.82,-0.0977718757681238,-0.02236483596517278,103.2349971767389
1.83,-0.10356771616394386,-0.007895299979366069,102.26911457633574
1.84,-0.09487395557021376,-0.020049088530279976,101.06748337915172
1.85,-0.09197603537230373,0.0025177925131049275,99.7536999368972
1.86,-0.08733277687337969,-0.01484254228404448,98.48569292120206
1.87,-0.08502761307958762,0.00425848857154784,97.54040971275064
1.88,-0.08443485667546966,-0.013676897602051458,96.99109259403795
1.89,-0.0890781151743937,-0.0026887537331305705,96.80112042381647
1.9,-0.08502761307958762,-0.01715828971893728,96.83316392240805
1.91,-0.09836463217224176,-0.00847035135581596,96.96820438075825
1.92,-0.09372137367331773,-0.025255634776515476,97.14902126566784
1.93,-0.10705839276597187,-0.018308392471837066,97.28406172401804
1.94,-0.10126255237015179,-0.03451862451608669,97.35043754252916
1.95,-0.10416047256806182,-0.017733341095387174,97.30466111596978
1.96,-0.09836463217224176,-0.025255634776515476,97.1604653723077
1.97,-0.1047202980608399,-0.019474037153830087,96.93387206083871
1.98,-0.0995172140691378,-0.02814643358785817,96.69812346405784
1.99,-0.1047202980608399,-0.02119919128317976,96.46237486727698
2.0,-0.10705839276597187,-0.03624377864543636,96.18313866526469
2.01,-0.1064656363618539,-0.02178978458872289,95.82379371677347
2.02,-0.10416047256806182,-0.0339435731396368,95.41867234172285
2.03,-0.11805731715349405,-0.026996330834958386,95.0021068600324
2.04,-0.10936355655976394,-0.038559526080329164,94.55349787975037
2.05,-0.11515939695558401,-0.029312078269851192,94.0247801529894
2.06,-0.1064656363618539,-0.038559526080329164,93.48690714091656
2.07,-0.1099563129638819,-0.02988712964630108,93.01540994735483
2.08,-0.10356771616394386,-0.03798447470387927,92.5668009670728
2.09,-0.10877080015564598,-0.03220287708119388,92.12734727210264
2.1,-0.10066979596603383,-0.03566872726898647,91.66729418518075
2.11,-0.10705839276597187,-0.02119919128317976,91.23012931153858
2.12,-0.10126255237015179,-0.03335297983409367,90.8364520431278
2.13,-0.1082109746628679,-0.02236483596517278,90.4313306680772
2.14,-0.10705839276597187,-0.038559526080329164,90.00560990107486
2.15,-0.10936355655976394,-0.02178978458872289,89.6119326326641
2.16,-0.0977718757681238,-0.029312078269851192,89.26403179081272
2.17,-0.11110889486077793,-0.025830686152965365,88.94817444755292
2.18,-0.10761821825874994,-0.03972517076232219,88.69182645882033
2.19,-0.07923177268376755,-0.00963599603780898,88.42174554211992
2.2,-0.045016555801625203,-0.00963599603780898,88.11733230549997
2.21,-0.03223936220174914,0.01698732849891164,87.83809610348769
2.22,0.02226129606576345,0.0025177925131049275,87.55657108014744
2.23,0.02746438005746556,0.015246632440468727,87.33226659000641
2.24,-0.0009549964288567161,-0.02178978458872289,87.14000559845697
2.25,-0.06935249928180152,-0.032777928457643775,86.9729216415152
2.26,-0.11805731715349405,-0.0541947067481289,86.73717304473433
2.27,-0.13952827134710022,-0.04608181976145747,86.43275980811438
2.28,-0.13663035114919017,-0.05591986087747857,86.16496771274194
2.29,-0.14937461383772635,-0.04956321187834329,85.89488679604153
2.3,-0.1487818574336084,-0.05766055693592148,85.64769409262082
2.31,-0.1499673702418443,-0.04782251581990038,85.4005013892001
2.32,-0.18474241261676475,-0.027571382211408278,85.16475279241925
2.33,-0.21372161459586508,0.08296281749971668,84.90611598235868
2.34,0.23272275043897975,0.03203191586116824,84.63603506565828
2.35,0.916335538943689,-0.2364859930827443,84.38884236223757
2.36,0.5487277756565331,-0.21043771992247357,84.1759819787364
2.37,-0.24214099108218737,-0.15372522066123973,84.00660920046664
2.38,-0.37896892769941687,-0.004429449791573483,83.82808113688502
2.39,-0.3273661896298143,0.058655240397888865,83.64726425197543
2.4,-0.22649880819574114,0.04361065303563226,83.4458479751141
2.41,-0.18823308921879273,-0.02410553202361569,83.24443169825278
2.42,-0.18648775091777875,-0.04204091819721499,83.05217070670335
2.43,-0.18938567111568877,-0.046672413067000595,82.86219853648187
2.44,-0.17025281162721456,-0.04608181976145747,82.6493381529807
2.45,-0.18299707431575074,-0.032777928457643775,82.36781312964044
2.46,-0.1731507318251246,-0.044931717008557685,82.07484399966035
2.47,-0.1870475764105568,-0.040875273515221966,81.82765129623964
2.48,-0.17025281162721456,-0.037409423327429386,81.60334680609861
2.49,-0.1766414084271526,-0.027571382211408278,81.31266649744649
2.5,-0.16910022973031852,-0.031627825704744,80.94187744231542
2.51,-0.17779399032404863,-0.03220287708119388,80.62602009905561
2.52,-0.1731507318251246,-0.0339435731396368,80.39027150227474
2.53,-0.1696600552230966,-0.02293988734162267,80.28956336384408
2.54,-0.15981371273247047,-0.025255634776515476,80.41315971555444
2.55,-0.17545589561891667,-0.014267490907594589,81.09751729261734
2.56,-0.1644569712313945,-0.018883443848286954,82.89653085640141
2.57,-0.15457769782942846,-0.0009480576746876578,86.28627524312432
2.58,-0.1360375947450722,0.0059991846299907526,90.8593402564075
2.59,-0.13488501284817617,0.01641227712246175,95.62008861858418
2.6,-0.10356771616394386,0.03608835935450396,99.74225583025735
2.61,-0.08674002046926173,0.04592640047052506,103.04502500651742
2.62,-0.04616913769852124,0.06906833289035985,105.35902336909464
2.63,-0.024138358012137,0.08122212144127376,106.58354277955836
2.64,0.022821121558541525,0.0818127147468169,106.88566719485034
2.65,0.04024157365734162,0.09800740486197328,106.63847449142963
2.66,0.06981353204055994,0.0794969673119241,106.06626915943724
2.67,0.10053807232067428,0.08642866768750926,105.40251097432606
2.68,0.09474223192485422,0.05576444158654617,104.83030564233368
2.69,0.06398476073339998,0.04303560165918237,104.35880844877195
2.7,0.055883756543787834,0.022784468050690267,103.99946350028073
2.71,0.008924276973109312,0.0077243387593404255,103.74082669022017
2.72,-0.031086780304853102,-0.012526794849151675,103.69505026366078
2.73,-0.060065982283953455,-0.01484254228404448,103.75227079686002
2.74,-0.06470924078287749,-0.023514938718072562,103.87586714857038
2.75,-0.08328227477857363,-0.016567696413394152,104.054395212152
2.76,-0.07574109608173955,-0.016567696413394152,104.24665620370143
2.77,-0.09717911936400583,-0.01715828971893728,104.42518426728307
2.78,-0.0977718757681238,-0.025255634776515476,104.5281812270417
2.79,-0.10416047256806182,-0.02814643358785817,104.505293013762
2.8,-0.08733277687337969,-0.01484254228404448,104.38169666205164
2.81,-0.10182237786292987,-0.020049088530279976,104.16883627855047
2.82,-0.0890781151743937,-0.01541759366049437,103.80949133005926
2.83,-0.10356771616394386,-0.006154603920923155,103.18006546486762
2.84,-0.08618019497648366,-0.00904540273226585,102.15696233126523
2.85,-0.09487395557021376,-0.007895299979366069,100.7539148572199
2.86,-0.08268951837445566,-0.010211047414258871,99.24787042341593
2.87,-0.09023069707128972,-0.0032638051095804613,97.9340869811614
2.88,-0.08268951837445566,-0.011951743472701785,96.99109259403795
2.89,-0.08443485667546966,-0.006154603920923155,96.47381897391682
2.9,-0.06299683339320337,-0.007320248602916178,96.35022262220647
2.91,-0.07514833967762159,-0.0015231090511375485,96.50815129383636
2.92,-0.07340300137660759,-0.010211047414258871,96.77823221053677
2.93,-0.07863901627964959,-0.005579552544473265,97.01398080731764
2.94,-0.07340300137660759,-0.012526794849151675,97.16962065761957
2.95,-0.09487395557021376,-0.007320248602916178,97.23828529745866
2.96,-0.0768936779786356,-0.010786098790708763,97.28406172401804
2.97,-0.08674002046926173,-0.00847035135581596,97.2726176173782
2.98,-0.07923177268376755,-0.01541759366049437,97.19250887089926
2.99,-0.09372137367331773,-0.007895299979366069,97.05746841254906
3.0,-0.08094418007344166,-0.016567696413394152,96.83316392240805
3.01,-0.09023069707128972,-0.013676897602051458,96.57452711234748
3.02,-0.0855874385723657,-0.018883443848286954,96.24951448377581
3.03,-0.09487395557021376,-0.012526794849151675,95.81234961013362
3.04,-0.08328227477857363,-0.02178978458872289,95.2950759900125
3.05,-0.09082345347540768,-0.013676897602051458,94.78924647653123
3.06,-0.08502761307958762,-0.01484254228404448,94.32919338960934
3.07,-0.09717911936400583,-0.006154603920923155,93.83480798276793
3.08,-0.08038435458066359,-0.007320248602916178,93.22827033085599
3.09,-0.10066979596603383,-0.010211047414258871,92.6560649988636
3.1,-0.08792553327749765,-0.018883443848286954,92.16167959202218
3.11,-0.09717911936400583,-0.007320248602916178,91.7016265051003
3.12,-0.07399575778072555,-0.006154603920923155,91.28506102340984
3.13,-0.05311755999123735,0.006574236006440644,90.91427196827877
3.14,-0.04152587919959721,0.01120573087622625,90.48855120127644
3.15,0.0025356801731712805,0.019878127310254335,90.06054161294612
3.16,0.059374433145815836,0.015246632440468727,89.73552898437445
3.17,0.02400663436677745,0.021618823368697245,89.39907224916293
3.18,0.012974779067915384,-0.005579552544473265,89.0626155139514
3.19,-0.07630092157451762,-0.006154603920923155,88.71242585077206
3.2,-0.1029749597598259,-0.018883443848286954,88.43318964875976
3.21,-0.12559849585032812,-0.02119919128317976,88.22948455057048
3.22,-0.116904735256598,-0.018883443848286954,88.06240059362871
3.23,-0.1290891724523561,-0.018308392471837066,87.87013960207926
3.24,-0.11341405865457001,-0.02178978458872289,87.62294689865855
3.25,-0.13778293304608621,-0.003838856486030352,87.35515480328611
3.26,-0.1940289296146128,0.03782905541294687,87.0850738865857
3.27,-0.07340300137660759,0.1095861420364373,86.837881183165
3.28,0.6113623690249977,-0.026996330834958386,86.60213258638413
3.29,0.9969174789923919,-0.2063968183582311,86.3778280962431
3.3,0.2849182449127003,-0.17629210170462464,86.17412299805382
3.31,-0.32506102583602225,-0.07559594310952078,86.00703904111204
3.32,-0.31926518544020216,0.022193874745147137,85.83766626284229
3.33,-0.2688150292674956,0.06154603920923156,85.61336177270128
3.34,-0.17199814992822857,0.034922714672510936,85.33183674936102
3.35,-0.15517045423354642,0.007149287382890534,85.08464404594031
3.36,-0.13952827134710022,-0.00904540273226585,84.88322776907899
3.37,-0.14937461383772635,-0.0009480576746876578,84.68181149221766
3.38,-0.1342922564440582,-0.016567696413394152,84.48955050066823
3.39,-0.14762927553671235,-0.003838856486030352,84.29957833044675
3.4,-0.1308345107533701,-0.016567696413394152,84.10960616022528
3.41,-0.1400880968398783,-0.003838856486030352,83.89445695539614
3.42,-0.116904735256598,-0.000373006298237767,83.63582014533559
3.43,-0.13719017664196825,0.0019427411366550365,83.34513983668344
3.44,-0.120395411858626,-0.005579552544473265,83.02012720811177
3.45,-0.12675107774722416,-0.003838856486030352,82.69282575821212
3.46,-0.120395411858626,-0.0050045011680233745,82.43418894815156
3.47,-0.1342922564440582,0.004833539947997731,82.29914848980135
3.48,-0.11285423316179194,-0.003838856486030352,82.39070134292014
3.49,-0.12329333205653605,0.013521478311119054,82.88508674976157
3.5,-0.09487395557021376,0.019303075933804443,84.23091369060766
3.51,-0.11226147675767398,0.027400420991382634,87.00725396143474
3.52,-0.08733277687337969,0.03088181310826846,90.99438071475771
3.53,-0.0855874385723657,0.05113294671676056,95.46444876828225
3.54,-0.03978054089858321,0.060395936456331775,99.52939544675618
3.55,-0.04383104299338928,0.08585361631105938,102.8436087296561
3.56,0.009484102465887387,0.09743235348552338,105.26747051597586
3.57,0.01761803756683942,0.11247694084778,106.59269806487023
3.58,0.07037335753333801,0.11132683809488021,107.02070765320055
3.59,0.07616919792915808,0.11653338434111571,106.93144362140973
3.6,0.11443491690610649,0.0991730495439663,106.50343403307943
3.61,0.1039958180113624,0.09048511118084498,105.86485288257592
3.62,0.1161802552071205,0.06097098783278167,105.25831523066398
3.63,0.07096611393745597,0.04592640047052506,104.75248571718271
3.64,0.055883756543787834,0.013521478311119054,104.35880844877195
3.65,-0.0003622400247387544,0.0007926383837552549,104.054395212152
3.66,0.001942923769053319,-0.010211047414258871,103.87586714857038
3.67,-0.04557638129440328,-0.00904540273226585,103.80949133005926
3.68,-0.03978054089858321,-0.02988712964630108,103.87586714857038
3.69,-0.06879267378902344,-0.018883443848286954,103.96513118036118
3.7,-0.04152587919959721,-0.02236483596517278,104.08872753207154
3.71,-0.06704733548800945,-0.02119919128317976,104.14594806527079
3.72,-0.05545565469636931,-0.025255634776515476,104.13450395863093
3.73,-0.07574109608173955,-0.020049088530279976,104.07728342543169
3.74,-0.04791447599953524,-0.023514938718072562,103.92164357512976
3.75,-0.06414941529009942,-0.014267490907594589,103.62867444514966
3.76,-0.042678461096493245,-0.023514938718072562,103.04502500651742
3.77,-0.06879267378902344,-0.013676897602051458,102.09058651275411
3.78,-0.042678461096493245,-0.01484254228404448,100.76535896385974
3.79,-0.05835357489427934,-0.005579552544473265,99.23642631677608
3.8,-0.03223936220174914,-0.003838856486030352,97.83337884273074
3.81,-0.045016555801625203,0.0007926383837552549,96.8217198157682
3.82,-0.025290939909033035,-0.013676897602051458,96.24951448377581
3.83,-0.05081239619744527,-0.003838856486030352,96.10302991878575
3.84,-0.03747537710479114,-0.018308392471837066,96.20373805721641
3.85,-0.05081239619744527,-0.0050045011680233745,96.46237486727698
3.86,-0.031679536708971064,-0.02293988734162267,96.67752407210611
3.87,-0.06181132058496745,-0.014267490907594589,96.89038445560729
3.88,-0.03978054089858321,-0.023514938718072562,97.0918007324686
3.89,-0.06704733548800945,-0.016567696413394152,97.18106476425942
3.9,-0.04442379939750724,-0.02410553202361569,97.18106476425942
3.91,-0.06299683339320337,-0.02410553202361569,97.05746841254906
3.92,-0.04791447599953524,-0.0339435731396368,96.89038445560729
3.93,-0.06645457908389149,-0.020624139906729868,96.66607996546627
3.94,-0.0467618941026392,-0.02410553202361569,96.38455494212602
3.95,-0.06819991738490548,-0.018308392471837066,96.04809820691449
3.96,-0.04152587919959721,-0.02814643358785817,95.65442093850372
3.97,-0.05891340038705742,-0.013101846225601566,95.22870017150139
3.98,-0.039220715405805136,-0.02410553202361569,94.75491415661169
3.99,-0.06181132058496745,-0.00963599603780898,94.205597037899
4.0,-0.04616913769852124,-0.025255634776515476,93.64483581254645
4.01,-0.05716806208604342,-0.007895299979366069,93.17333861898473
4.02,-0.03688262070067318,-0.020049088530279976,92.74532903065442
4.03,-0.056608236593265346,-0.010786098790708763,92.31960826365209
4.04,-0.029934198407957066,-0.02119919128317976,91.89159867532177
4.05,-0.007310662317454861,0.00425848857154784,91.42010148176004
4.06,0.020515957764749453,-0.0015231090511375485,90.93716018155847
4.07,0.046037414053161696,0.0059991846299907526,90.49999530791628
4.08,0.1179255935081345,0.006574236006440644,90.10631803950552
4.09,0.05529100013966987,0.008314932064883556,89.7469730910143
4.1,0.03964881725322366,-0.026996330834958386,89.4311157477545
4.11,-0.056015480189147385,-0.02236483596517278,89.14043543910236
4.12,-0.060065982283953455,-0.046672413067000595,88.89324273568165
4.13,-0.09836463217224176,-0.03624377864543636,88.63460592562109
4.14,-0.07574109608173955,-0.04782251581990038,88.35308090228084
4.15,-0.1047202980608399,-0.037409423327429386,88.0852888069084
4.16,-0.08094418007344166,-0.04782251581990038,87.82665199684784
4.17,-0.12619125225444608,-0.02236483596517278,87.54512697350758
4.18,-0.1887929147115708,0.03608835935450396,87.33226659000641
4.19,0.12892451789565668,0.08585361631105938,87.15144970509682
4.2,0.8815604965687687,-0.07618653641506391,86.98436574815504
4.21,0.8676307210719966,-0.15546591671968263,86.8149929698853
4.22,0.0408013991501197,-0.17397635426973182,86.62502079966382
4.23,-0.3372454630317803,-0.0489881605018934,86.35493988296341
4.24,-0.26996761116439166,0.012355833629126033,86.07341485962316
4.25,-0.19518151151150884,0.04418570441208215,85.86055447612199
4.26,-0.118650073557612,-0.016567696413394152,85.68202641254037
4.27,-0.13373243095128015,-0.024680583400065584,85.52409774091046
4.28,-0.10705839276597187,-0.04030022213877208,85.36616906928056
4.29,-0.1290891724523561,-0.02988712964630108,85.1761968990591
4.3,-0.09546671197433172,-0.03566872726898647,84.92900419563838
4.31,-0.12095523735140408,-0.026405737529415257,84.71385499080924
4.32,-0.09661929387122777,-0.03798447470387927,84.52388282058777
4.33,-0.12500573944621016,-0.02988712964630108,84.3110224370866
4.34,-0.09253586086508181,-0.036834371950979494,84.0180533071065
4.35,-0.12329333205653605,-0.027571382211408278,83.64726425197543
4.36,-0.09138327896818577,-0.031037232399200865,83.32225162340374
4.37,-0.12210781924830011,-0.025830686152965365,83.0636148133432
4.38,-0.09253586086508181,-0.032777928457643775,82.90568614171329
4.39,-0.11459957146280593,-0.01541759366049437,83.0407266000635
4.4,-0.08268951837445566,-0.018883443848286954,83.67015246525513
4.41,-0.10587287995773594,0.0019427411366550365,85.32039264272117
4.42,-0.07748643438275356,-0.013676897602051458,88.38741322220038
4.43,-0.08792553327749765,0.013521478311119054,92.45235990067431
4.44,-0.04847430149231331,0.01641227712246175,96.73245578397739
4.45,-0.06125149509218938,0.04129490560073946,100.56165386567045
4.46,-0.00905600061846886,0.04766709652896797,103.57145391195043
4.47,-0.0061580804205588245,0.07369982776014547,105.68403599766633
4.48,0.055883756543787834,0.0818127147468169,106.7391826298603
4.49,0.0651702735416359,0.10495464716665169,107.1443040049109
4.5,0.12372143390395457,0.09626670880353037,107.09852757835151
4.51,0.12892451789565668,0.11073624478933708,106.78495905641968
4.52,0.16952833157773706,0.08701926099305239,106.36839357472923
4.53,0.13936361679040077,0.07369982776014547,105.94267280772688
4.54,0.15039547208926285,0.038979158165846656,105.68403599766633
4.55,0.08894639152903415,0.026250318238482853,105.54899553931612
4.56,0.07037335753333801,-0.00904540273226585,105.51466321939658
4.57,0.009484102465887387,-0.00963599603780898,105.53755143267627
4.58,0.010669615274123311,-0.036834371950979494,105.59477196587551
4.59,-0.03688262070067318,-0.02872148496430806,105.71836831758587
4.6,-0.019495099513212964,-0.043191020950114775,105.86485288257592
4.61,-0.04791447599953524,-0.031037232399200865,106.0319368395177
4.62,-0.025883696313150996,-0.046672413067000595,106.20130961778744
4.63,-0.05950615679117538,-0.043191020950114775,106.2562413296587
4.64,-0.02818886010694307,-0.04839756719635027,106.3020177562181
4.65,-0.060065982283953455,-0.037409423327429386,106.23335311637902
4.66,-0.031086780304853102,-0.050713314631243074,106.07771326607708
4.67,-0.05716806208604342,-0.03220287708119388,105.84196466929622
4.68,-0.02878161651106103,-0.04261596957366488,105.4597315075253
4.69,-0.06125149509218938,-0.03972517076232219,104.95390199404403
4.7,-0.02298577611524096,-0.03509367589253658,104.21232388378189
4.71,-0.04791447599953524,-0.02178978458872289,103.15717725158792
4.72,-0.01485184101428893,-0.03335297983409367,101.89832552120467
4.73,-0.03803520259756921,-0.017733341095387174,100.65320671878924
4.74,-0.008463244214350898,-0.02814643358785817,99.7308117236175
4.75,-0.043271217500611206,-0.024680583400065584,99.17005049826497
4.76,-0.011953920816378895,-0.037409423327429386,98.89996958156456
4.77,-0.04557638129440328,-0.02814643358785817,98.87708136828486
4.78,-0.01718993571942089,-0.04030022213877208,98.96863422140365
4.79,-0.045016555801625203,-0.02872148496430806,99.10138585842587
4.8,-0.014292015521510855,-0.03451862451608669,99.18149460490481
4.81,-0.047321719595417276,-0.031627825704744,99.13571817834541
4.82,-0.017749761212198966,-0.039150119385872297,99.08078646647415
4.83,-0.049067057896431274,-0.03451862451608669,99.01212182663507
4.84,-0.02298577611524096,-0.0437816142556579,98.9343019014841
4.85,-0.05021963979332731,-0.03509367589253658,98.7992614431339
4.86,-0.02818886010694307,-0.0489881605018934,98.54062463307334
4.87,-0.056015480189147385,-0.04435666563210779,98.22705611114151
4.88,-0.031679536708971064,-0.050713314631243074,97.85626705601044
4.89,-0.062404076989085414,-0.04204091819721499,97.46258978759967
4.9,-0.029934198407957066,-0.04839756719635027,97.0025367006778
4.91,-0.06530199718699545,-0.04550676838500758,96.48526308055668
4.92,-0.0345774569068811,-0.052454010689685984,95.99087767371525
4.93,-0.060658738688071416,-0.04204091819721499,95.4530046616424
4.94,-0.025290939909033035,-0.04839756719635027,94.90139872160174
4.95,-0.05950615679117538,-0.04030022213877208,94.41845742140016
4.96,-0.033984700502763136,-0.04956321187834329,93.92407201455873
4.97,-0.06470924078287749,-0.044931717008557685,93.4754630342767
4.98,-0.035730038803777134,-0.053029062066135876,93.07034165922609
4.99,-0.060065982283953455,-0.040875273515221966,92.6560649988636
5.0,-0.007903418721572823,-0.03509367589253658,92.21661130389344
5.01,-0.0003622400247387544,-0.01541759366049437,91.81377875017081
5.02,0.04659723954593977,-0.014267490907594589,91.39721326848034
5.03,0.06108684053548995,-0.00847035135581596,91.08364474654852
5.04,0.1039958180113624,-0.00904540273226585,90.84789614976765
5.05,0.04195398104701573,-0.020049088530279976,90.57781523306724
5.06,0.011822197171019348,-0.052454010689685984,90.30773431636683
5.07,-0.08038435458066359,-0.054769758124578787,90.0170540077147
5.08,-0.056015480189147385,-0.06286710318215698,89.65770905922348
5.09,-0.09661929387122777,-0.057085505559471596,89.37618403588323
5.1,-0.07050508117869755,-0.06345769648770011,89.10610311918282
5.11,-0.1029749597598259,-0.06229205180570709,88.9046868423215
5.12,-0.07169059398693348,-0.07270514429817809,88.73531406405175
5.13,-0.14183343514089228,-0.04204091819721499,88.49956546727088
5.14,-0.12559849585032812,0.04998284396386078,88.2203292652586
5.15,0.27273380771694217,0.04592640047052506,87.9044719219988
5.16,0.999815399190302,-0.20234037486489537,87.62294689865855
5.17,0.636291068909292,-0.19307738512532416,87.38719830187769
5.18,-0.14183343514089228,-0.17919844244506056,87.22011434493591
5.19,-0.3239084439391262,-0.007320248602916178,87.062185673306
5.2,-0.22649880819574114,0.03782905541294687,86.87221350308454
5.21,-0.16155905103348445,0.03551330797805407,86.63646490630367
5.22,-0.0960265374671098,-0.04724746444345049,86.42131570147453
5.23,-0.11575215335970197,-0.03798447470387927,86.17412299805382
5.24,-0.08038435458066359,-0.04956321187834329,85.9727067211925
5.25,-0.10936355655976394,-0.0437816142556579,85.77129044433117
5.26,-0.07979159817654563,-0.05361965537167901,85.54698595419016
5.27,-0.11110889486077793,-0.04782251581990038,85.32039264272117
5.28,-0.07514833967762159,-0.05013826325479318,85.07548876062843
5.29,-0.11051613845665997,-0.0437816142556579,84.75963141736864
5.3,-0.08153693647755962,-0.05534480950102868,84.37739825559771
5.31,-0.10761821825874994,-0.0414658668207651,84.00660920046664
5.32,-0.07109783758281552,-0.04204091819721499,83.73881710509421
5.33,-0.10705839276597187,-0.036834371950979494,83.54655611354477
5.34,-0.07399575778072555,-0.04030022213877208,83.50306850831335
5.35,-0.10416047256806182,-0.025255634776515476,83.87156874211645
5.36,-0.07284317588382952,-0.030462181022750973,85.01826822742919
5.37,-0.09836463217224176,-0.013101846225601566,87.41008651515737
5.38,-0.060065982283953455,-0.014267490907594589,91.07220063990867
5.39,-0.08268951837445566,0.010040086194233229,95.34085241657189
5.4,-0.0328321186058671,0.012946426934669164,99.4607308069171
5.41,-0.0467618941026392,0.034922714672510936,102.96491626003849
5.42,0.00833152056899135,0.04186995697718935,105.53755143267627
5.43,0.0071789386720953145,0.06386178664412435,106.986375333281
5.44,0.073864034135366,0.06965892619590298,107.60435709183278
5.45,0.07732177982605412,0.08527856493460949,107.73939755018299
5.46,0.14285429339242878,0.0794969673119241,107.5585806652734
5.47,0.13126261260078864,0.0818127147468169,107.21067982342201
5.48,0.17647675387045317,0.05808018902143897,106.83073548297907
5.49,0.14459963169344278,0.04939225065831765,106.50343403307943
5.5,0.14809030829547076,0.011780782252676142,106.32490596949779
5.51,0.07732177982605412,0.0002020450782121238,106.24479722301886
5.52,0.07152593943023405,-0.02410553202361569,106.3020177562181
5.53,0.004281018474185279,-0.02988712964630108,106.42561410792845
5.54,0.016465455669943382,-0.03798447470387927,106.61558627814993
5.55,-0.029341442003839105,-0.029312078269851192,106.80784726969938
5.56,-0.013106502713274931,-0.04782251581990038,106.99781943992085
5.57,-0.045016555801625203,-0.039150119385872297,107.13285989827105
5.58,-0.019495099513212964,-0.05130390793678621,107.21067982342201
5.59,-0.05021963979332731,-0.038559526080329164,107.16719221819059
5.6,-0.023545601608019034,-0.050713314631243074,107.10997168499135
5.61,-0.060658738688071416,-0.04030022213877208,107.05503997312009
5.62,-0.024138358012137,-0.043191020950114775,106.89711130149018
5.63,-0.05776081849016138,-0.0339435731396368,106.66136270470932
5.64,-0.02124043781422696,-0.0437816142556579,106.29057364957825
5.65,-0.05776081849016138,-0.03509367589253658,105.75041181617743
5.66,-0.025883696313150996,-0.039150119385872297,104.90812556748465
5.67,-0.05371031639535531,-0.02119919128317976,103.81864661537114
5.68,-0.024138358012137,-0.039150119385872297,102.59641602623539
5.69,-0.051964978094341314,-0.02293988734162267,101.4382724342828
5.7,-0.016004422911184965,-0.031037232399200865,100.56165386567045
5.71,-0.05021963979332731,-0.023514938718072562,100.03522496023746
5.72,-0.01718993571942089,-0.03566872726898647,99.82236457673629
5.73,-0.047321719595417276,-0.02236483596517278,99.85440807532787
5.74,-0.01659717931530293,-0.03566872726898647,99.97800442703821
5.75,-0.049659814300549235,-0.02293988734162267,100.10160077874858
5.76,-0.019495099513212964,-0.03335297983409367,100.17026541858766
5.77,-0.05891340038705742,-0.025830686152965365,100.12448899202826
5.78,-0.025883696313150996,-0.039150119385872297,100.03522496023746
5.79,-0.06355665888598146,-0.03566872726898647,99.90018450188725
5.8,-0.02469818350491507,-0.04030022213877208,99.77658815017689
5.81,-0.05835357489427934,-0.026405737529415257,99.618659478547
5.82,-0.029341442003839105,-0.03972517076232219,99.57517187331557
5.83,-0.06819991738490548,-0.026996330834958386,99.78803225681675
5.84,-0.033984700502763136,-0.04261596957366488,99.7079235103378
5.85,-0.06760716098078752,-0.029312078269851192,99.15860639162511
5.86,-0.029341442003839105,-0.0414658668207651,98.41702828136297
5.87,-0.062404076989085414,-0.030462181022750973,97.69833838438053
5.88,-0.03342487500998506,-0.0437816142556579,97.137577159028
5.89,-0.06935249928180152,-0.03451862451608669,96.66607996546627
5.9,-0.03747537710479114,-0.04724746444345049,96.17169455862485
5.91,-0.07225041947971156,-0.037409423327429386,95.71164147170296
5.92,-0.04211863560371517,-0.04956321187834329,95.28363188337265
5.93,-0.07399575778072555,-0.038559526080329164,94.83502290309062
5.94,-0.04211863560371517,-0.04956321187834329,94.3177492829695
5.95,-0.07514833967762159,-0.03798447470387927,93.80047566284838
5.96,-0.04152587919959721,-0.046672413067000595,93.39764310912574
5.97,-0.07458851418484351,-0.0339435731396368,93.07034165922609
5.98,-0.04383104299338928,-0.04724746444345049,92.73388492401457
5.99,-0.06470924078287749,-0.026996330834958386,92.3402076556038
6.0,0.00023051637937920733,-0.02236483596517278,91.99230681375244
6.01,-0.031086780304853102,-0.012526794849151675,91.72451471838
6.02,0.04195398104701573,-0.004429449791573483,91.46587790831944
6.03,0.04313949385525166,0.0031083858186480586,91.15002056505963
6.04,0.056476512947905795,-0.02410553202361569,90.90282786163893
6.05,-0.018342517616316927,-0.04261596957366488,90.71285569141745
6.06,-0.04093312279547925,-0.0617170004292572,90.51143941455614
6.07,-0.11400681505868797,-0.06518285061704979,90.21847028457603
6.08,-0.09082345347540768,-0.0767615877915138,89.91405704795608
6.09,-0.13139433624614819,-0.06229205180570709,89.62337673930394
6.1,-0.10066979596603383,-0.0767615877915138,89.28692000409242
6.11,-0.13488501284817617,-0.0646077992405999,88.97106266083262
6.12,-0.10531305446495787,-0.08022743797930638,88.7238699574119
6.13,-0.2027226902083429,-0.010211047414258871,88.54534189383028
6.14,-0.07863901627964959,0.06849328151390997,88.35308090228084
6.15,0.4362357825194799,-0.04956321187834329,88.09673291354825
6.16,1.007949334291254,-0.3001457346486565,87.84954021012753
6.17,0.3718887817613412,-0.20408107092333827,87.61379161334668
6.18,-0.2885406451600878,-0.14505282422721164,87.35515480328611
6.19,-0.36507208311398465,0.0054085913244476215,87.14000559845697
6.2,-0.23749773258326334,0.026250318238482853,87.02785335338646
6.21,-0.18823308921879273,0.014671581064018837,86.93858932159566
6.22,-0.12734383415134212,-0.05766055693592148,86.76006125801402
6.23,-0.15866113083557443,-0.04782251581990038,86.44420391475423
6.24,-0.11631197885248004,-0.06229205180570709,86.11919128618256
6.25,-0.1534251159325324,-0.05187895931323609,85.93837440127295
6.26,-0.116904735256598,-0.06345769648770011,85.82622215620245
6.27,-0.15457769782942846,-0.052454010689685984,85.60191766606142
6.28,-0.11920989905039008,-0.06286710318215698,85.29979325076945
6.29,-0.15632303613044246,-0.0489881605018934,84.95189240891807
6.3,-0.11575215335970197,-0.060551355747264175,84.60170274573873
6.31,-0.15866113083557443,-0.044931717008557685,84.24235779724751
6.32,-0.11631197885248004,-0.05766055693592148,83.92878927531568
6.33,-0.1522725340356364,-0.04204091819721499,83.73881710509421
6.34,-0.11400681505868797,-0.050713314631243074,83.82808113688502
6.35,-0.1499673702418443,-0.03220287708119388,84.2881342238069
6.36,-0.10877080015564598,-0.04204091819721499,85.47832131435108
6.37,-0.13663035114919017,-0.01484254228404448,87.95024834855819
6.38,-0.08674002046926173,-0.020049088530279976,91.8366669634505
6.39,-0.11459957146280593,0.007149287382890534,96.32733440892677
6.4,-0.05950615679117538,0.0059991846299907526,100.51816626043903
6.41,-0.07923177268376755,0.03088181310826846,104.03379582020027
6.42,-0.015444597418406892,0.03955420954229654,106.63847449142963
6.43,-0.022393019711122997,0.07138408032525266,108.1445189252336
6.44,0.05357859274999576,0.06502743132611738,108.75105657714553
6.45,0.049495159743849805,0.0847035135581596,108.71672425722599
6.46,0.11443491690610649,0.06791823013746008,108.32304698881522
6.47,0.09704739571864629,0.08064707006482387,107.84010568861365
6.48,0.14226153698831082,0.04939225065831765,107.437273134891
6.49,0.09764015212276425,0.04418570441208215,107.12141579163121
6.5,0.10807925101750836,0.007149287382890534,106.8513348749308
6.51,0.030955056659493555,0.0025177925131049275,106.76207084313998
6.52,0.03500555875429963,-0.024680583400065584,106.79640316305952
6.53,-0.03223936220174914,-0.020624139906729868,106.94288772804958
6.54,-0.016004422911184965,-0.040875273515221966,107.13285989827105
6.55,-0.07748643438275356,-0.031037232399200865,107.29078856990095
6.56,-0.045016555801625203,-0.04550676838500758,107.4143849216113
6.57,-0.08792553327749765,-0.029312078269851192,107.52653716668182
6.58,-0.05486289829225135,-0.04839756719635027,107.66157762503202
6.59,-0.09487395557021376,-0.03220287708119388,107.6936211236236
6.6,-0.05545565469636931,-0.04435666563210779,107.58146887855308
6.61,-0.09487395557021376,-0.027571382211408278,107.437273134891
6.62,-0.05835357489427934,-0.040875273515221966,107.3022326765408
6.63,-0.1029749597598259,-0.0339435731396368,107.03215175984039
6.64,-0.06181132058496745,-0.046672413067000595,106.49198992643957
6.65,-0.0995172140691378,-0.027571382211408278,105.63825957110693
6.66,-0.05776081849016138,-0.040875273515221966,104.505293013762
6.67,-0.09372137367331773,-0.02119919128317976,103.18006546486762
6.68,-0.049067057896431274,-0.03335297983409367,101.8433938093334
6.69,-0.08443485667546966,-0.018883443848286954,100.85462299565056
6.7,-0.03978054089858321,-0.03335297983409367,100.30530587693787
6.71,-0.08212969288167758,-0.023514938718072562,100.05811317351716
6.72,-0.039220715405805136,-0.03566872726898647,100.03522496023746
6.73,-0.0855874385723657,-0.025255634776515476,100.11304488538842
6.74,-0.045016555801625203,-0.04204091819721499,100.19086481053938
6.75,-0.0855874385723657,-0.024680583400065584,100.22519713045892
6.76,-0.04791447599953524,-0.04608181976145747,100.28241766365817
6.77,-0.09082345347540768,-0.03220287708119388,100.31446116224974
6.78,-0.04791447599953524,-0.043191020950114775,100.24808534373862
6.79,-0.08848535877027573,-0.031627825704744,100.10160077874858
6.8,-0.04557638129440328,-0.04435666563210779,99.9116286085271
6.81,-0.0890781151743937,-0.03335297983409367,99.7308117236175
6.82,-0.0467618941026392,-0.04839756719635027,99.4607308069171
6.83,-0.09138327896818577,-0.037409423327429386,99.092230573114
6.84,-0.05081239619744527,-0.0541947067481289,98.67566509142354
6.85,-0.09138327896818577,-0.03798447470387927,98.19272379122197
6.86,-0.051964978094341314,-0.056510454183021704,97.59763024594987
6.87,-0.09487395557021376,-0.037409423327429386,97.04602430590921
6.88,-0.049067057896431274,-0.04782251581990038,96.5424836137559
6.89,-0.0942811991660958,-0.03566872726898647,96.14880634534515
6.9,-0.042678461096493245,-0.0437816142556579,95.77801729021408
6.91,-0.0855874385723657,-0.02988712964630108,95.3179642032922
6.92,-0.05311755999123735,-0.056510454183021704,94.80069058317108
6.93,-0.08502761307958762,-0.029312078269851192,94.28341696304996
6.94,-0.047321719595417276,-0.04782251581990038,93.83480798276793
6.95,-0.0855874385723657,-0.0339435731396368,93.37475489584604
6.96,-0.042678461096493245,-0.04724746444345049,92.98107762743528
6.97,-0.08212969288167758,-0.024680583400065584,92.61028857230421
6.98,-0.04152587919959721,-0.044931717008557685,92.30816415701223
6.99,-0.08153693647755962,-0.02988712964630108,92.03808324031182
7.0,-0.049067057896431274,-0.04956321187834329,91.65585007854091
7.01,-0.08618019497648366,-0.026996330834958386,91.27361691677
7.02,-0.03747537710479114,-0.036834371950979494,91.03786831998913
7.03,-0.042678461096493245,-0.0015231090511375485,90.84789614976765
7.04,0.001942923769053319,-0.019474037153830087,90.63503576626648
7.05,0.012382022663797423,0.028566065673375655,90.35351074292623
7.06,0.09530205741763229,0.015246632440468727,90.03765339966643
7.07,0.029209718358479558,0.007149287382890534,89.78130541093384
7.08,0.025159216263673487,-0.04550676838500758,89.54555681415297
7.09,-0.06760716098078752,-0.027571382211408278,89.26403179081272
7.1,-0.06470924078287749,-0.0617170004292572,88.94817444755292
7.11,-0.11285423316179194,-0.04204091819721499,88.66893824554063
7.12,-0.08038435458066359,-0.06229205180570709,88.45607786203946
7.13,-0.120395411858626,-0.04204091819721499,88.22948455057048
7.14,-0.07979159817654563,-0.06345769648770011,87.96169245519805
7.15,-0.12095523735140408,-0.03972517076232219,87.72594385841718
7.16,-0.14068085324399626,-0.00963599603780898,87.51079465358804
7.17,-0.1117016512648959,0.08874441512240207,87.29793427008687
7.18,0.4855333567952904,-0.054769758124578787,87.02785335338646
7.19,0.9940195587944819,-0.2740974614883858,86.76921654332591
7.2,0.43798112082049395,-0.20002462743000257,86.56780026646459
7.21,-0.2989797440548319,-0.10801640719802003,86.44420391475423
7.22,-0.30303024614963797,0.010040086194233229,86.30916345640402
7.23,-0.2467842495811114,0.06791823013746008,86.11919128618256
7.24,-0.1308345107533701,0.021618823368697245,85.96126261455265
7.25,-0.14242619154501024,-0.023514938718072562,85.77129044433117
7.26,-0.10416047256806182,-0.050713314631243074,85.47832131435108
7.27,-0.14588393723569837,-0.03624377864543636,85.19908511233879
7.28,-0.10241513426704783,-0.054769758124578787,84.96104769422995
7.29,-0.13719017664196825,-0.03220287708119388,84.74818731072878
7.3,-0.09487395557021376,-0.04782251581990038,84.51243871394792
7.31,-0.13778293304608621,-0.03220287708119388,84.24235779724751
7.32,-0.09253586086508181,-0.04839756719635027,83.94023338195554
7.33,-0.13488501284817617,-0.024680583400065584,83.59233254010415
7.34,-0.09253586086508181,-0.04030022213877208,83.2215434849731
7.35,-0.12793659055546008,-0.014267490907594589,82.90568614171329
7.36,-0.09197603537230373,-0.03220287708119388,82.72715807813167
7.37,-0.13139433624614819,-0.01484254228404448,82.77293450469105
7.38,-0.09197603537230373,-0.029312078269851192,83.13227945318228
7.39,-0.12500573944621016,0.0019427411366550365,84.11876144553716
7.4,-0.0838421002713517,-0.011951743472701785,86.4007163095228
7.41,-0.1117016512648959,0.01641227712246175,90.24135849785573
7.42,-0.062404076989085414,0.007149287382890534,94.94717514816114
7.43,-0.08618019497648366,0.03955420954229654,99.36002266848644
7.44,-0.02878161651106103,0.03723846210740374,103.05646911315728
7.45,-0.043271217500611206,0.06906833289035985,105.9197845944472
7.46,0.02805713646158352,0.06675258545546706,107.66157762503202
7.47,0.022821121558541525,0.09800740486197328,108.40315573529415
7.48,0.09414947552073626,0.0847035135581596,108.42375512724588
7.49,0.0825577947290961,0.0991730495439663,108.05296607211481
7.5,0.1474975518913528,0.07890637400638097,107.5585806652734
7.51,0.11967093180914849,0.08122212144127376,107.06648407975993
7.52,0.15849647627887498,0.04881719928186776,106.62703038478978
7.53,0.08720105322802015,0.040144802847839674,106.3020177562181
7.54,0.0848629585228882,-0.006154603920923155,106.13264497794836
7.55,0.014720117368929383,0.0025177925131049275,106.08915737271694
7.56,0.016465455669943382,-0.032777928457643775,106.1669772978679
7.57,-0.039220715405805136,-0.010211047414258871,106.29057364957825
7.58,-0.020647681410109,-0.03509367589253658,106.40272589464877
7.59,-0.06760716098078752,-0.017733341095387174,106.52632224635911
7.6,-0.0345774569068811,-0.036834371950979494,106.69569502462886
7.61,-0.08268951837445566,-0.023514938718072562,106.83989076829094
7.62,-0.04037329730270117,-0.037409423327429386,106.90855540813004
7.63,-0.08674002046926173,-0.024680583400065584,106.86277898157064
7.64,-0.05021963979332731,-0.04261596957366488,106.68425091798902
7.65,-0.08848535877027573,-0.025830686152965365,106.42561410792845
7.66,-0.04442379939750724,-0.03566872726898647,106.10060147935678
7.67,-0.08674002046926173,-0.02178978458872289,105.64970367774679
7.68,-0.039220715405805136,-0.031627825704744,104.88752617553291
7.69,-0.07514833967762159,-0.007320248602916178,103.71793847694047
7.7,-0.03223936220174914,-0.02410553202361569,102.2576704696959
7.71,-0.06181132058496745,-0.0021137023566806796,100.87751120893026
7.72,-0.018902343109095002,-0.019474037153830087,100.24808534373862
7.73,-0.05776081849016138,-0.0067296552973730465,100.03522496023746
7.74,-0.018342517616316927,-0.02119919128317976,99.9345168218068
7.75,-0.062404076989085414,-0.010211047414258871,99.87729628860755
7.76,-0.02818886010694307,-0.031037232399200865,99.83151986204817
7.77,-0.06935249928180152,-0.016567696413394152,99.86585218196771
7.78,-0.031086780304853102,-0.02988712964630108,99.94367210711867
7.79,-0.07109783758281552,-0.011361150167158654,100.02378085359761
7.8,-0.03513728239965917,-0.032777928457643775,100.00089264031791
7.81,-0.07225041947971156,-0.01541759366049437,99.90018450188725
7.82,-0.031679536708971064,-0.031037232399200865,99.76514404353705
7.83,-0.07748643438275356,-0.019474037153830087,99.55228366003588
7.84,-0.03688262070067318,-0.031627825704744,99.22498221013623
7.85,-0.07630092157451762,-0.020049088530279976,98.8885254749247
7.86,-0.042678461096493245,-0.0414658668207651,98.49484820651395
7.87,-0.07748643438275356,-0.02178978458872289,98.10345975943115
7.88,-0.04093312279547925,-0.03798447470387927,97.69833838438053
7.89,-0.07748643438275356,-0.02293988734162267,97.2726176173782
7.9,-0.04557638129440328,-0.0437816142556579,96.74389989061723
7.91,-0.07574109608173955,-0.01541759366049437,96.12591813206545
7.92,-0.033984700502763136,-0.02872148496430806,95.56515690671291
7.93,-0.06994525568591949,-0.00847035135581596,95.0478832865918
7.94,-0.033984700502763136,-0.026405737529415257,94.63131780490133
7.95,-0.07284317588382952,-0.013676897602051458,94.205597037899
7.96,-0.0345774569068811,-0.02872148496430806,93.76843216425681
7.97,-0.06994525568591949,-0.012526794849151675,93.32897846928665
7.98,-0.03223936220174914,-0.026996330834958386,92.86892538236478
7.99,-0.06935249928180152,-0.012526794849151675,92.43176050872259
8.0,-0.030526954812075027,-0.03220287708119388,92.04952734695168
8.01,-0.06760716098078752,-0.01541759366049437,91.73367000369187
8.02,-0.0363227952078951,-0.037409423327429386,91.43154558839989
8.03,-0.07050508117869755,-0.018308392471837066,91.15002056505963
8.04,-0.031679536708971064,-0.031627825704744,90.82500793648796
8.05,-0.06589475359111341,-0.01599264503694426,90.51143941455614
8.06,-0.029341442003839105,-0.02872148496430806,90.22991439121587
8.07,-0.06181132058496745,-0.007895299979366069,89.994165794435
8.08,-0.0003622400247387544,-0.004429449791573483,89.75841719765414
8.09,-0.010208582515364896,0.013521478311119054,89.49978038759359
8.1,0.05878167674169787,0.012946426934669164,89.21825536425332
8.11,0.06457751713751794,0.038404106789396764,88.93901916224104
8.12,0.08894639152903415,0.004833539947997731,88.69182645882033
8.13,0.013567535472033347,-0.012526794849151675,88.39885732884022
8.14,-0.007903418721572823,-0.04261596957366488,88.09673291354825
8.15,-0.0890781151743937,-0.03624377864543636,87.84954021012753
8.16,-0.05776081849016138,-0.05361965537167901,87.6343910052984
8.17,-0.10531305446495787,-0.039150119385872297,87.42153062179723
8.18,-0.07340300137660759,-0.05534480950102868,87.19722613165621
8.19,-0.10416047256806182,-0.03624377864543636,86.9271452149558
8.2,-0.06879267378902344,-0.0541947067481289,86.67995251153509
8.21,-0.14762927553671235,-0.00847035135581596,86.44420391475423
8.22,-0.12270057565241807,0.08007201868837399,86.20845531797336
8.23,0.2953573438074444,0.04303560165918237,85.9727067211925
8.24,1.010254498085046,-0.2463240341987654,85.71406991113194
8.25,0.5754018138418414,-0.19133668906688123,85.51265363427062
8.26,-0.17081263711999264,-0.15893176690747524,85.34328085600087
8.27,-0.33899080133279436,0.01063067949977636,85.24257271757021
8.28,-0.2340399868925752,0.04592640047052506,85.09608815258015
8.29,-0.1696600552230966,0.04998284396386078,84.92900419563838
8.3,-0.08963794066717176,-0.030462181022750973,84.7252990974491
8.31,-0.12095523735140408,-0.02236483596517278,84.44606289543681
8.32,-0.08618019497648366,-0.04261596957366488,84.11876144553716
8.33,-0.11575215335970197,-0.02293988734162267,83.86241345680456
8.34,-0.08502761307958762,-0.044931717008557685,83.67015246525513
8.35,-0.12095523735140408,-0.026996330834958386,83.45729208175395
8.36,-0.08733277687337969,-0.043191020950114775,83.2215434849731
8.37,-0.12329333205653605,-0.026996330834958386,82.94001846163283
8.38,-0.08792553327749765,-0.036834371950979494,82.626449939701
8.39,-0.12270057565241807,-0.02119919128317976,82.31059259644121
8.4,-0.0838421002713517,-0.02988712964630108,82.03135639442893
8.41,-0.120395411858626,-0.01541759366049437,81.81620718959978
8.42,-0.0855874385723657,-0.026405737529415257,81.73838726444882
8.43,-0.1117016512648959,-0.0032638051095804613,81.91920414935841
8.44,-0.07979159817654563,-0.019474037153830087,82.70426986485197
8.45,-0.10877080015564598,0.0025177925131049275,84.68181149221766
8.46,-0.06935249928180152,-0.0021137023566806796,88.2203292652586
8.47,-0.09253586086508181,0.02450962218003994,92.94674530751574
8.48,-0.0467618941026392,0.020468720615797464,97.81049062945105
8.49,-0.06355665888598146,0.05055789534031067,101.92121373448437
8.5,-0.006750836824676787,0.04766709652896797,105.15531827090535
8.51,-0.010208582515364896,0.08007201868837399,107.39149670833162
8.52,0.054138418242773836,0.07775627125348118,108.49241976708497
8.53,0.05703633844068387,0.1026388997317589,108.73961247050568
8.54,0.12256885200705853,0.09106016255729488,108.44664334052558
8.55,0.1126895786050925,0.10148879697885911,107.81721747533395
8.56,0.16024181457988898,0.07601557519503827,107.12141579163121
8.57,0.12777193599876063,0.07138408032525266,106.56065456627866
8.58,0.14110895509141477,0.036663410730953847,106.15553319122805
8.59,0.07037335753333801,0.02508467355648983,105.85340877593607
8.6,0.06398476073339998,-0.007320248602916178,105.70692421094601
8.61,0.004873774878303241,-0.0032638051095804613,105.67259189102647
8.62,0.007771695076213276,-0.023514938718072562,105.78474413609699
8.63,-0.042678461096493245,-0.01541759366049437,105.95411691436674
8.64,-0.024138358012137,-0.03451862451608669,106.1212008713085
8.65,-0.05950615679117538,-0.025255634776515476,106.26768543629856
8.66,-0.03513728239965917,-0.039150119385872297,106.41417000128861
8.67,-0.07458851418484351,-0.026405737529415257,106.52632224635911
8.68,-0.039220715405805136,-0.0339435731396368,106.53776635299897
8.69,-0.07050508117869755,-0.029312078269851192,106.41417000128861
8.7,-0.03688262070067318,-0.031037232399200865,106.1669772978679
8.71,-0.07284317588382952,-0.02236483596517278,105.81907645601653
8.72,-0.038627959001687175,-0.02988712964630108,104.95390199404403
8.73,-0.07225041947971156,-0.02119919128317976,103.75227079686002
8.74,-0.033984700502763136,-0.023514938718072562,102.5048631731166
8.75,-0.060065982283953455,-0.012526794849151675,101.20252383750193
8.76,-0.023545601608019034,-0.023514938718072562,99.9345168218068
8.77,-0.049659814300549235,-0.00963599603780898,98.87708136828486
8.78,-0.017749761212198966,-0.025830686152965365,98.13550325802272
8.79,-0.05021963979332731,-0.012526794849151675,97.7761583095315
8.8,-0.016004422911184965,-0.02236483596517278,97.73267070430008
8.81,-0.0467618941026392,-0.011361150167158654,97.85626705601044
8.82,-0.021800263307005036,-0.02872148496430806,98.08057154615146
8.83,-0.05427014188813339,-0.02293988734162267,98.27054371637293
8.84,-0.030526954812075027,-0.040875273515221966,98.36209656949171
8.85,-0.05776081849016138,-0.030462181022750973,98.38269596144343
8.86,-0.029934198407957066,-0.0437816142556579,98.30487603629247
8.87,-0.05311755999123735,-0.025255634776515476,98.114903866071
8.88,-0.02818886010694307,-0.038559526080329164,97.9111987678817
8.89,-0.06530199718699545,-0.038559526080329164,97.69833838438053
8.9,-0.033984700502763136,-0.04435666563210779,97.48547800087937
8.91,-0.060065982283953455,-0.03566872726898647,97.1604653723077
8.92,-0.03747537710479114,-0.04839756719635027,96.67752407210611
8.93,-0.05891340038705742,-0.03798447470387927,96.18313866526469
8.94,-0.0328321186058671,-0.04782251581990038,95.71164147170296
8.95,-0.05545565469636931,-0.038559526080329164,95.2721877767328
8.96,-0.030526954812075027,-0.04782251581990038,94.82357879645078
8.97,-0.05311755999123735,-0.038559526080329164,94.30630517632966
8.98,-0.029934198407957066,-0.05013826325479318,93.81191976948823
8.99,-0.05950615679117538,-0.04608181976145747,93.26260265077553
9.0,-0.030526954812075027,-0.050713314631243074,92.71099671073488
9.01,-0.056608236593265346,-0.040875273515221966,92.27383183709269
9.02,-0.02818886010694307,-0.04724746444345049,91.92593099524132
9.03,-0.049659814300549235,-0.03451862451608669,91.61007365198152
9.04,-0.02878161651106103,-0.04782251581990038,91.28506102340984
9.05,-0.05891340038705742,-0.043191020950114775,90.89138375499907
9.06,-0.031679536708971064,-0.04724746444345049,90.39699834815765
9.07,-0.051964978094341314,-0.03972517076232219,89.98272168779516
9.08,-0.025290939909033035,-0.04782251581990038,89.70119666445491
9.09,-0.04557638129440328,-0.03566872726898647,89.49978038759359
9.1,-0.025883696313150996,-0.04839756719635027,89.27547589745257
9.11,-0.0467618941026392,-0.04030022213877208,88.95961855419277
9.12,-0.025290939909033035,-0.04839756719635027,88.64605003226094
9.13,-0.04847430149231331,-0.04261596957366488,88.37596911556054
9.14,-0.008463244214350898,-0.03624377864543636,88.14022051877967
9.15,0.0071789386720953145,-0.01484254228404448,87.9273601352785
9.16,0.026904554564687485,-0.02178978458872289,87.66872332521794
9.17,0.05239307994175984,0.0059991846299907526,87.41008651515737
9.18,0.11038441481130043,-0.004429449791573483,87.15144970509682
9.19,0.055883756543787834,-0.02814643358785817,86.88365760972438
9.2,0.032700394960507556,-0.0594012529943644,86.67995251153509
9.21,-0.04616913769852124,-0.05187895931323609,86.4007163095228
9.22,-0.04847430149231331,-0.06634849529904281,86.09630307290286
9.23,-0.07863901627964959,-0.06518285061704979,85.83766626284229
9.24,-0.06125149509218938,-0.06807364942839247,85.63624998598097
9.25,-0.08328227477857363,-0.06634849529904281,85.46687720771122
9.26,-0.06589475359111341,-0.0738707889801711,85.2883491441296
9.27,-0.09546671197433172,-0.06345769648770011,85.08464404594031
9.28,-0.14647669363981633,0.0013676897602051456,84.84889544915944
9.29,-0.014292015521510855,0.0818127147468169,84.56965924714716
9.3,0.6525260081998562,-0.13404913842919752,84.2652460105272
9.31,0.9969174789923919,-0.3012958374015563,84.0409415203862
9.32,0.30289852250427846,-0.20059967880645246,83.91734516867584
9.33,-0.30708074824444404,-0.0923812265302203,83.83952524352488
9.34,-0.2821520483601498,0.01120573087622625,83.69304067853481
9.35,-0.19982477001043286,0.04535134909407517,83.43440386847426
9.36,-0.11459957146280593,-0.0026887537331305705,83.14372355982212
9.37,-0.11575215335970197,-0.04956321187834329,82.95146256827269
9.38,-0.09372137367331773,-0.06114194905280731,82.83931032320217
9.39,-0.10705839276597187,-0.05361965537167901,82.68138165157228
9.4,-0.09253586086508181,-0.06345769648770011,82.43418894815156
9.41,-0.10761821825874994,-0.05766055693592148,82.14350863949943
9.42,-0.08792553327749765,-0.057085505559471596,81.83909540287948
9.43,-0.10587287995773594,-0.0541947067481289,81.58045859281891
9.44,-0.08733277687337969,-0.052454010689685984,81.34470999603805
9.45,-0.10241513426704783,-0.0489881605018934,81.10896139925718
9.46,-0.08618019497648366,-0.050713314631243074,80.80683698396521
9.47,-0.0977718757681238,-0.04550676838500758,80.43604792883414
9.48,-0.08153693647755962,-0.043191020950114775,80.18885522541343
9.49,-0.09487395557021376,-0.03509367589253658,80.20029933205328
9.5,-0.07979159817654563,-0.037409423327429386,80.62602009905561
9.51,-0.09082345347540768,-0.027571382211408278,81.81620718959978
9.52,-0.06299683339320337,-0.011951743472701785,84.34535475700615
9.53,-0.07399575778072555,-0.013676897602051458,88.41030143548008
9.54,-0.05081239619744527,-0.000373006298237767,93.3861990024859
9.55,-0.051372221690223346,0.004833539947997731,98.114903866071
9.56,-0.013699259117392892,0.027991014296925767,101.96699016104377
9.57,0.00023051637937920733,0.04418570441208215,104.87608206889307
9.58,0.042546737451133694,0.05808018902143897,106.72773852322044
9.59,0.06691561184264991,0.06617753407901716,107.51509306004196
9.6,0.11562042971434243,0.08007201868837399,107.51509306004196
9.61,0.12721211050598255,0.0719746736307958,107.04359586648025
9.62,0.15793665078609692,0.06734317876101019,106.34779418277749
9.63,0.15849647627887498,0.05113294671676056,105.63825957110693
9.64,0.1596819890871109,0.028566065673375655,105.06605423911454
9.65,0.1335677763945807,0.011780782252676142,104.6403334721122
9.66,0.09879273401966028,-0.010786098790708763,104.3702525554118
9.67,0.051833254448981764,-0.026405737529415257,104.25810031034129
9.68,0.032107638556389595,-0.031037232399200865,104.28098852362099
9.69,-0.010208582515364896,-0.04608181976145747,104.38169666205164
9.7,-0.01659717931530293,-0.0489881605018934,104.51673712040184
9.71,-0.03688262070067318,-0.057085505559471596,104.70670929062332
9.72,-0.03803520259756921,-0.057085505559471596,104.88752617553291
9.73,-0.04791447599953524,-0.0594012529943644,104.99967842060343
9.74,-0.04442379939750724,-0.060551355747264175,105.031721919195
9.75,-0.05021963979332731,-0.06114194905280731,104.98823431396357
9.76,-0.03747537710479114,-0.046672413067000595,104.85319385561337
9.77,-0.04616913769852124,-0.052454010689685984,104.65177757875205
9.78,-0.0345774569068811,-0.04261596957366488,104.29243263026083
9.79,-0.042678461096493245,-0.0489881605018934,103.69505026366078
9.8,-0.033984700502763136,-0.0414658668207651,102.79783230309671
9.81,-0.031086780304853102,-0.03972517076232219,101.52753646607361
9.82,-0.025290939909033035,-0.037409423327429386,100.05811317351716
9.83,-0.029341442003839105,-0.039150119385872297,98.641332771504
9.84,-0.020647681410109,-0.025255634776515476,97.63196256586942
9.85,-0.025883696313150996,-0.03509367589253658,97.1146889457483
9.86,-0.023545601608019034,-0.03451862451608669,96.96820438075825
9.87,-0.027596103702825107,-0.03798447470387927,97.0918007324686
9.88,-0.022393019711122997,-0.030462181022750973,97.30466111596978
9.89,-0.02818886010694307,-0.0414658668207651,97.46258978759967
9.9,-0.025883696313150996,-0.032777928457643775,97.52896560611079
9.91,-0.03513728239965917,-0.04435666563210779,97.56329792603033
9.92,-0.024138358012137,-0.03220287708119388,97.52896560611079
9.93,-0.03223936220174914,-0.04204091819721499,97.40536925440044
9.94,-0.031679536708971064,-0.039150119385872297,97.21539708417896
9.95,-0.035730038803777134,-0.04782251581990038,97.04602430590921
9.96,-0.029934198407957066,-0.03566872726898647,96.84460802904789
9.97,-0.0363227952078951,-0.04956321187834329,96.58597121898734
9.98,-0.031679536708971064,-0.039150119385872297,96.23807037713595
9.99,-0.04211863560371517,-0.052454010689685984,95.89016953528458
