time_s,ECG1,ECG2,NIBP
0.0,-0.0720846225167991,0.3659732094417711,99.58510879173217
0.01,-0.122580449457501,-0.5002777253796669,99.43956750587643
0.02,-0.06513229851771696,0.3670286476809687,99.42819709291895
0.03,-0.13246006777198616,-0.49579211286307706,99.21443332931833
0.04,-0.06000953346576169,0.3820686425895346,99.10224525480452
0.05,-0.1379487446133668,-0.5171647372068287,98.90060993169187
0.06,-0.06403456314944082,0.37626373227394777,98.66410534217628
0.07,-0.13136233240371004,-0.49526439374347825,98.40637598180675
0.08,-0.06513229851771696,0.3799577661111394,98.00158928052045
0.09,-0.1072121543016352,-0.4860293091504992,97.84467758170723
0.1,-0.07574374041105286,0.35436338881059737,97.66502505697905
0.11,-0.12953277345658315,-0.49579211286307706,97.406537669079
0.12,-0.06110726883403782,0.3913037271825137,97.20414431843585
0.13,-0.14014421534991905,-0.5113598268912418,96.92367413215135
0.14,-0.06403456314944082,0.3741528557955526,96.78874523172259
0.15,-0.1240440966152025,-0.5010693040590651,96.64244591833634
0.16,-0.05598450378208255,0.3913037271825137,96.36197573205183
0.17,-0.08562335872553802,-0.48655702827009795,96.17095279436616
0.18,0.022320619154947943,0.4364237119082115,95.89048260808165
0.19,-0.07171871072737372,-0.4899872025474902,95.66534843152355
0.2,0.004390941473104514,0.41980055964084917,95.63199522018161
0.21,-0.05781406272920943,-0.470197735562535,95.48569590679537
0.22,0.019759236628970313,0.46017107229015775,95.38487824523905
0.23,-0.06769368104369458,-0.47600264587812186,95.20522572051087
0.24,-0.03915256146851525,0.4314103802720229,95.04755599416714
0.25,-0.12331227303635175,-0.5021247422982628,95.02557319578267
0.26,-0.06403456314944082,0.4071353007704779,94.84592067105449
0.27,-0.12550774377290402,-0.5263998217998077,94.72236218358321
0.28,-0.06586412209656771,0.41109319416746887,94.56469245723949
0.29,-0.13538736208738916,-0.5234973666420143,94.39641034546878
0.3,-0.16795351134624764,0.401330390454891,94.32894589525439
0.31,-0.2206448090235018,-0.4773219436771189,94.17203419644117
0.32,0.33078425764054004,0.5176924563264275,94.10456974622679
0.33,0.9034362080912537,-0.37309741755635495,93.9362876344561
0.34,0.9546638586108064,0.46201808920875354,93.66642983359856
0.35,0.016466030524141927,-0.5506749013013528,93.61033579634166
0.36,-0.29821810838168156,0.32718585415125895,93.55424175908476
0.37,-0.2898021372248979,-0.5754776999224965,93.54287134612728
0.38,-0.12806912629888165,0.4121486324066665,93.55424175908476
0.39,-0.13099642061428465,-0.5153177202882329,93.30712478414219
0.4,-0.058911798097485556,0.424286172157439,93.27301354526975
0.41,-0.11526221366899349,-0.5205949114842209,93.17219588371343
0.42,-0.032932061048283855,0.44882511121878343,93.02589657032719
0.43,-0.09147794735634404,-0.510832107771643,93.04863739624214
0.44,-0.026345648838627084,0.44117318398460076,92.99254335898524
0.45,-0.07793921114760512,-0.5182201754460263,93.01528418490021
0.46,-0.015002383366440422,0.4533107237353733,93.01528418490021
0.47,-0.058911798097485556,-0.5050271974560562,92.92507890877086
0.48,0.004390941473104514,0.4614903700891547,92.85761445855648
0.49,-0.04866626799357503,-0.49684755110227463,92.61049748361391
0.5,0.03402979641655998,0.4857654495906998,92.40886216050127
0.51,-0.010977353682761284,-0.4638651061273494,92.26256284711502
0.52,0.058179974518634804,0.49737527022187344,91.9927050462575
0.53,0.03329797283770923,-0.43906230750620556,91.92524059604312
0.54,0.10757806609106059,0.5071380739344513,91.89188738470118
0.55,0.08781882946209027,-0.4424924817835978,92.07153990942936
0.56,0.22576757407545708,0.5628124410521252,92.77953762291511
0.57,0.21881525007637492,-0.3876096933453221,94.4411339697682
0.58,0.361886759741697,0.5905176948310625,98.52993446927802
0.59,0.3853051142649211,-0.3638623329633759,105.05503545181057
0.6,0.509715122669549,0.6124180382944129,112.60271557298582
0.61,0.49764003361851156,-0.3261304159120613,118.91481081944823
0.62,0.5678950971881838,0.6137373360934099,123.41825237814083
0.63,0.4489737656249365,-0.36254303516437886,126.40639690336658
0.64,0.3864028496331972,0.5269275409194065,127.46157122582073
0.65,0.21369248502441968,-0.4351044141092145,126.76570195282295
0.66,0.15404886334808335,0.4794328201555141,124.76602532736746
0.67,-0.006220500420231394,-0.5050271974560562,122.32896681681424
0.68,0.0047568532625298894,0.45225528549617566,119.6220505054035
0.69,-0.09550297704002317,-0.5171647372068287,116.91513419399274
0.7,-0.043909414731045135,0.44354792002279536,114.13014104694064
0.71,-0.1273373027200309,-0.5316770129957957,111.4793187727868
0.72,-0.06293682778116469,0.42798020599463066,109.05363067519104
0.73,-0.11416447830071735,-0.5182201754460263,107.30107102467812
0.74,-0.07354826967450061,0.44645037518058883,106.50362606259353
0.75,-0.13319189135083692,-0.5089850908530472,106.69464900027918
0.76,-0.0706209753590976,0.43932616706600497,107.8855102506926
0.77,-0.14636471577015045,-0.5258721026802089,109.45765934894683
0.78,-0.08562335872553802,0.4430202009031966,111.06391968607352
0.79,-0.14343742145474744,-0.5074019334942508,112.28813414782887
0.8,-0.06805959283311996,0.45093598769717863,113.16441397308533
0.81,-0.12514183198347864,-0.5039717592168586,113.4115309480279
0.82,-0.08050059367358275,0.43827072882680734,112.82709172201342
0.83,-0.13319189135083692,-0.5166370180872298,111.64760088455749
0.84,-0.07354826967450061,0.4551577406539691,109.90716967453255
0.85,-0.12843503808830703,-0.5137345629294364,108.08790360133574
0.86,-0.08342788798898576,0.4440756391423942,106.18980266496708
0.87,-0.15587842229521023,-0.5031801805374603,104.6396363650973
0.88,-0.08196424083128426,0.4667675612851428,103.76335653984084
0.89,-0.14197377429704594,-0.48471001135150216,103.49425676651381
0.9,-0.0966007124082993,0.45093598769717863,103.99910310182592
0.91,-0.13831465640279217,-0.4720447524811308,104.71847122826917
0.92,-0.09330750630347091,0.4348405545494151,105.76303316529632
0.93,-0.14929201008555346,-0.5060826356952537,106.74013065210912
0.94,-0.09769844777657542,0.4469780943001876,107.52620520123624
0.95,-0.1503897454538296,-0.4939450959444812,108.20009167584955
0.96,-0.06988915178024684,0.4789051010359153,108.5146731010065
0.97,-0.15441477513750873,-0.501597023178664,108.58213755122088
0.98,-0.1013575656708292,0.4527830046157745,108.2334448871915
0.99,-0.14233968608647132,-0.4860293091504992,107.8855102506926
1.0,-0.1013575656708292,0.42798020599463066,107.43599992510688
1.01,-0.15404886334808335,-0.48523773047110097,106.59383133872286
1.02,-0.08672109409381415,0.4348405545494151,105.50454577739627
1.03,-0.1441692450335982,-0.49737527022187344,104.22423727838402
1.04,-0.09477115346117242,0.444603358261993,103.12358130409996
1.05,-0.13941239177106832,-0.4749472076389243,102.06764895411531
1.06,-0.09879618314485156,0.4319380993916217,101.38239206654451
1.07,-0.15697615766348635,-0.49288965770528365,100.95562256687377
1.08,-0.10648033072278446,0.40581600297148085,100.55159389311798
1.09,-0.13941239177106832,-0.47098931424193324,100.20290122908858
1.1,-0.09843027135542619,0.420328278760448,99.8549665925897
1.11,-0.1610011873471655,-0.4963198319826759,99.75414893103337
1.12,-0.11270083114301585,0.4116209132870677,99.57449640630519
1.13,-0.15295112797980723,-0.4672952804047416,99.38347346861953
1.14,-0.1105053604064636,0.43009108247302585,99.19245053093385
1.15,-0.15880571661061324,-0.4686145782037386,99.04615121754762
1.16,-0.1181895079843965,0.43009108247302585,99.04615121754762
1.17,-0.1642943934519939,-0.4860293091504992,98.91122231711886
1.18,-0.09843027135542619,0.41927284052125036,98.90060993169187
1.19,-0.15295112797980723,-0.47362790983992725,98.75431061830562
1.2,-0.09330750630347091,0.41399564932526234,98.56328768061996
1.21,-0.15917162840003862,-0.47362790983992725,98.43972919314868
1.22,-0.11233491935359047,0.41927284052125036,98.2600766684205
1.23,-0.17124671745107603,-0.4778496627967177,98.18124180524863
1.24,-0.09879618314485156,0.41927284052125036,98.00158928052045
1.25,-0.10538259535450833,-0.4686145782037386,97.95686565622103
1.26,-0.04281167936276901,0.44117318398460076,97.9235124448791
1.27,-0.07867103472645587,-0.42850792511422947,97.77721313149284
1.28,0.017563765892418055,0.48471001135150216,97.58619019380718
1.29,-0.07171871072737372,-0.42850792511422947,97.30572000752268
1.3,-0.047202620835873524,0.4469780943001876,97.08058583096457
1.31,-0.11233491935359047,-0.4351044141092145,96.80011564468006
1.32,-0.09184385914576941,0.40634372209107966,96.65381633129381
1.33,-0.15990345197888936,-0.4585879149313613,96.54162825678002
1.34,-0.0966007124082993,0.42507775083683724,96.41806976930873
1.35,-0.1657580406096954,-0.46518440392634636,96.23841724458055
1.36,-0.11855541977382186,0.3907760080629149,96.0360238939374
1.37,-0.1888104833434941,-0.4691422973233374,95.95794705829604
1.38,-0.22430392691775558,0.3931507441011095,95.80027733195232
1.39,-0.27699522459500975,-0.4366875714680109,95.57590118292471
1.4,0.26748151806994996,0.4881401856288944,95.27269017072524
1.41,0.862819999465037,-0.3256026967924625,95.10440805895453
1.42,1.0040619501832322,0.4042328456126844,95.10440805895453
1.43,0.06403456314944082,-0.5229696475224155,95.03694360874016
1.44,-0.3622526715311224,0.2849683245833546,94.99146195691024
1.45,-0.3267592279568609,-0.4778496627967177,94.77845622084011
1.46,-0.2085697199724644,0.3791661874317412,94.59880369611193
1.47,-0.18515136544924032,-0.4535745832951727,94.46387479568317
1.48,-0.09879618314485156,0.3891928507041185,94.30696309686994
1.49,-0.14636471577015045,-0.43906230750620556,94.22812823369807
1.5,-0.09733253598715005,0.3984279352970976,94.08182892031184
1.51,-0.12550774377290402,-0.4200644192006486,94.12731057214175
1.52,-0.05269129767725417,0.41874512140165154,94.13792295756873
1.53,-0.10355303640738145,-0.4366875714680109,94.11594015918428
1.54,-0.026345648838627084,0.424286172157439,93.96964084579803
1.55,-0.08342788798898576,-0.4095100368086725,93.77861790811237
1.56,-0.018295589471268806,0.4042328456126844,93.66642983359856
1.57,-0.047202620835873524,-0.38681811466592386,93.40794244569851
1.58,0.006586412209656771,0.4179535427222533,93.3632188213991
1.59,-0.03402979641655998,-0.3881374124649209,93.27301354526975
1.6,0.029638854943455466,0.425605469956436,93.17219588371343
1.61,0.013538736208738918,-0.38338794038853163,93.04863739624214
1.62,0.09477115346117242,0.46254580832835235,92.99254335898524
1.63,0.0936734180928963,-0.333782343146244,93.07137822215711
1.64,0.1902741305011956,0.49500053418367884,93.21691950801285
1.65,0.20783789639361364,-0.309507263644699,93.9249172214986
1.66,0.3534707885849134,0.54302297406717,95.80027733195232
1.67,0.3717663780561822,-0.25330517740742625,100.12482439344723
1.68,0.493249092145407,0.5585906880953349,106.60520175168035
1.69,0.49141953319828013,-0.23641816558026452,113.53508943549919
1.7,0.536060771508176,0.5599099858943318,119.26274545594713
1.71,0.4153098809978019,-0.29367569005673483,123.01422370438505
1.72,0.3406638759550252,0.45964335317055893,125.36183496633942
1.73,0.18917639513291945,-0.36043215868598366,125.94551616482339
1.74,0.122580449457501,0.4150510875644599,125.22690606591065
1.75,-0.01719785410299268,-0.41584266624385813,123.36215834088392
1.76,-0.01427055978758967,0.37573601315434896,121.06002873075947
1.77,-0.07903694651588125,-0.4105654750478701,118.72378788176258
1.78,-0.039884385047366,0.3699311028387621,116.12905964486563
1.79,-0.11160309577473972,-0.43563213322881333,113.40016053507041
1.8,-0.06805959283311996,0.3480307593754117,110.40140362441768
1.81,-0.10757806609106059,-0.4343128354298163,107.87413983773511
1.82,-0.08050059367358275,0.3393233939020314,105.79638637663827
1.83,-0.1013575656708292,-0.4071353007704779,104.68435998939673
1.84,-0.06952323999082147,0.34908619761460935,104.67298957643924
1.85,-0.1013575656708292,-0.4332573971906187,105.5492694016957
1.86,-0.05086173873012728,0.36491777120257346,107.12141849994994
1.87,-0.1042848599862322,-0.43035494203282526,108.50330268804902
1.88,-0.06110726883403782,0.33193532622764815,109.6486822866325
1.89,-0.0966007124082993,-0.42850792511422947,110.24373389807396
1.9,-0.04281167936276901,0.3675563668005675,110.08682219926074
1.91,-0.07647556398990361,-0.41927284052125036,109.10972471244796
1.92,-0.04683670904644815,0.37283355799655554,107.40264671376495
1.93,-0.10465077177565757,-0.42217529567904377,105.51591619035376
1.94,-0.06110726883403782,0.37045882195836094,104.12266158929721
1.95,-0.1013575656708292,-0.42850792511422947,103.5048691519408
1.96,-0.07281644609564986,0.3393233939020314,103.51623956489827
1.97,-0.1042848599862322,-0.44645037518058883,103.97712030344147
1.98,-0.07574374041105286,0.360696018245783,104.45998384036912
1.99,-0.1057485071439337,-0.4205921383202474,104.99894141455367
2.0,-0.06366865136001545,0.36016829912618425,105.60536343895261
2.01,-0.11160309577473972,-0.4332573971906187,106.21178546335153
2.02,-0.07281644609564986,0.34275356817942365,106.6840366148522
2.03,-0.10062574209197844,-0.4134679302056635,107.09943570156548
2.04,-0.06074135704461244,0.3694033837191633,107.2563474003787
2.05,-0.1028212128285307,-0.42745248687503185,107.13278891290742
2.06,-0.05598450378208255,0.3548911079301962,106.76211345049357
2.07,-0.09550297704002317,-0.4124124919664659,106.03213293862335
2.08,-0.06988915178024684,0.3654454903221723,105.07777627772553
2.09,-0.0966007124082993,-0.41927284052125036,103.94300906456903
2.1,-0.06586412209656771,0.356738124848792,102.8764643291574
2.11,-0.0845256233572619,-0.42455003171723843,101.94409046664403
2.12,-0.06513229851771696,0.35093321453320514,101.1693863304744
2.13,-0.10465077177565757,-0.4227030147986426,100.39392416677426
2.14,-0.043909414731045135,0.3688756645995645,99.7427785180759
2.15,-0.09769844777657542,-0.4263970486358342,99.10224525480452
2.16,-0.07281644609564986,0.35964058000658544,98.5973989194924
2.17,-0.10977353682761284,-0.43035494203282526,98.16987139229116
2.18,-0.06366865136001545,0.35383566969099856,97.97960648213599
2.19,-0.1042848599862322,-0.4477696729795858,97.96823606917852
2.2,-0.06988915178024684,0.356738124848792,97.97960648213599
2.21,-0.1028212128285307,-0.44935283033838225,98.00158928052045
2.22,-0.07464600504277673,0.3498777762940075,98.11377735503426
2.23,-0.10538259535450833,-0.4351044141092145,98.12514776799173
2.24,-0.07391418146392598,0.3654454903221723,98.05768331777735
2.25,-0.0966007124082993,-0.4372152905876097,97.9235124448791
2.26,-0.06586412209656771,0.3525163718920016,97.87803079304916
2.27,-0.1072121543016352,-0.447241953859987,97.88940120600665
2.28,-0.07281644609564986,0.3562104057291932,97.78858354445032
2.29,-0.0874529176726649,-0.4564770384529661,97.59756060676466
2.3,-0.05012991515127653,0.3675563668005675,97.41790808203648
2.31,-0.04573897367817202,-0.41637038536345694,97.24962597026577
2.32,0.015368295155865798,0.37230583887695673,96.96839775645077
2.33,-0.03329797283770923,-0.425605469956436,96.67655715720878
2.34,0.02158879557609719,0.3989556544166964,96.40669935635125
2.35,-0.010977353682761284,-0.4118847728468671,96.22704683162307
2.36,0.011709177261612037,0.40634372209107966,95.99130026963797
2.37,-0.042079855783918256,-0.4240223125976396,95.82301815786728
2.38,-0.02927294315403009,0.38444337862772926,95.63199522018161
2.39,-0.09038021198806791,-0.4453949369413912,95.49706631975285
2.4,-0.07098688714852297,0.360696018245783,95.30604338206719
2.41,-0.11123718398531435,-0.46518440392634636,95.09303764599706
2.42,-0.07501191683220211,0.36016829912618425,94.91338512126887
2.43,-0.1181895079843965,-0.46518440392634636,94.83455025809701
2.44,-0.16612395239912076,0.3525163718920016,94.6662681463263
2.45,-0.23967222207362138,-0.4332573971906187,94.47524520864064
2.46,0.2221084561812033,0.45383844285497205,94.2167578207406
2.47,0.8675768527275668,-0.2994806003723217,94.12731057214175
2.48,1.1807973444756887,0.40819073900967545,94.07045850735436
2.49,0.162464834504867,-0.510832107771643,94.01436447009745
2.5,-0.33188199300881616,0.28312130766475874,93.90217639558365
2.51,-0.26638378270167384,-0.5066103548148525,93.80135873402733
2.52,-0.1686853349250984,0.36201531604478004,93.6997830449405
2.53,-0.12221453766807563,-0.4643928252469482,93.57622455746922
2.54,-0.047934444414724275,0.39790021617749877,93.44205368457095
2.55,-0.08855065304094102,-0.4593794936107595,93.32986561005715
2.56,-0.047934444414724275,0.3902482889433161,93.26240115984277
2.57,-0.06183909241288857,-0.4530468641755739,93.1835662966709
2.58,-0.03585935536368686,0.39262302498151075,93.10473143349905
2.59,-0.042079855783918256,-0.4575324766921637,93.08274863511458
2.6,-0.015368295155865798,0.40871845812927426,93.01528418490021
2.61,-0.02012514841839569,-0.4453949369413912,92.77953762291511
2.62,0.021222883786671816,0.41980055964084917,92.59912707065644
2.63,0.013538736208738918,-0.45172756637657685,92.49830940910012
2.64,0.024150178102074826,0.39790021617749877,92.49830940910012
2.65,0.03256614925885848,-0.42929950379362763,92.37475092162883
2.66,0.07903694651588125,0.4348405545494151,92.2284516082426
2.67,0.06403456314944082,-0.4332573971906187,92.09428073534433
2.68,0.12184862587865025,0.45093598769717863,92.1056511483018
2.69,0.14929201008555346,-0.3984279352970976,92.27393326007251
2.7,0.23198807449568848,0.5100405290922447,92.99254335898524
2.71,0.2810202542786889,-0.3609598778055824,94.84592067105449
2.72,0.370668642687906,0.5245528048812119,99.09087484184704
2.73,0.43104408794309307,-0.3250749776728637,105.7175515134664
2.74,0.5371585068764522,0.5551605138179426,113.2424908087267
2.75,0.5737496858189898,-0.30475779156830973,119.18391059277526
2.76,0.5847270395017511,0.5498833226219545,123.48571682835521
2.77,0.5093492108801236,-0.3522525123322022,126.14790951546654
2.78,0.4401918826787275,0.528510698278203,127.04617213910747
2.79,0.25943145870259166,-0.4477696729795858,126.43975011470853
2.8,0.1734421881876283,0.4232307339182414,124.58637280263927
2.81,0.06732776925426921,-0.4789051010359153,122.21677874230043
2.82,0.025247913470350953,0.3989556544166964,119.72362619449032
2.83,-0.012441000840462789,-0.4963198319826759,117.19636240780775
2.84,-0.02012514841839569,0.40291354781368743,114.68046903408268
2.85,-0.04098212041564213,-0.5142622820490352,112.32148735917082
2.86,-0.025247913470350953,0.3741528557955526,110.15428664947511
2.87,-0.05781406272920943,-0.5340517490339904,108.52528548643348
2.88,-0.032932061048283855,0.3781107491925436,107.7172281389219
2.89,-0.05488676841380642,-0.5340517490339904,107.9976983252064
2.9,-0.0461048854675974,0.37573601315434896,108.98616622497667
2.91,-0.06000953346576169,-0.5467170079043617,110.42338642280214
2.92,-0.05195947409840341,0.38444337862772926,111.91745868541503
2.93,-0.06805959283311996,-0.5506749013013528,113.25386122168418
2.94,-0.03183432568000773,0.3902482889433161,114.0399357708113
2.95,-0.05488676841380642,-0.5691450704873109,114.33253439758379
2.96,-0.04317759115219438,0.3659732094417711,113.95048852221245
2.97,-0.06183909241288857,-0.539065080670179,112.99537383378413
2.98,-0.03695709073196299,0.3931507441011095,111.63698849913051
2.99,-0.05488676841380642,-0.5512026204209516,109.94052288587449
3.0,-0.04281167936276901,0.3799577661111394,107.97495749929145
3.01,-0.06513229851771696,-0.5374819233113827,106.08822697588026
3.02,-0.05086173873012728,0.37283355799655554,104.28033131564094
3.03,-0.05781406272920943,-0.5675619131285145,103.2130285526988
3.04,-0.05195947409840341,0.3849710977473281,103.02200561501314
3.05,-0.06769368104369458,-0.5512026204209516,103.68452167666898
3.06,-0.05012991515127653,0.3936784632207083,104.71847122826917
3.07,-0.07647556398990361,-0.5472447270239605,105.68419830212446
3.08,-0.058911798097485556,0.38338794038853163,106.59383133872286
3.09,-0.06183909241288857,-0.5699366491667092,107.11080611452296
3.1,-0.06257091599173932,0.3907760080629149,107.45874075102185
3.11,-0.07391418146392598,-0.5704643682863079,107.55955841257817
3.12,-0.055618591992657174,0.39420618234030713,107.51483478827875
3.13,-0.05195947409840341,-0.5414398167083737,107.12141849994994
3.14,-0.05708223915035868,0.38101320435033703,106.47027285125158
3.15,-0.047202620835873524,-0.5403843784691761,105.85248041389517
3.16,-0.05964362167633631,0.3775830300729448,104.96558820321172
3.17,-0.06366865136001545,-0.5749499808028977,104.04458475365584
3.18,-0.04281167936276901,0.37230583887695673,103.19104575431435
3.19,-0.0567163273609333,-0.5762692786018948,102.29202510314292
3.2,-0.05708223915035868,0.37626373227394777,101.5620445912727
3.21,-0.05708223915035868,-0.5622847219325264,100.85480490531744
3.22,-0.05598450378208255,0.355418827049795,100.46138861698863
3.23,-0.05269129767725417,-0.5641317388511222,100.04598953027536
3.24,-0.055618591992657174,0.35436338881059737,99.69805489377647
3.25,-0.05781406272920943,-0.5628124410521252,99.394843881577
3.26,-0.053789033045530295,0.35198865277240277,99.08026245642006
3.27,-0.05964362167633631,-0.5670341940089156,98.99005718029072
3.28,-0.05781406272920943,0.34275356817942365,98.90060993169187
3.29,-0.07464600504277673,-0.6050299706200296,98.8892395187344
3.3,-0.043909414731045135,0.3572658439683908,98.64212254379183
3.31,-0.06110726883403782,-0.5680896322481133,98.41698836723373
3.32,-0.06659594567541846,0.3469753211362141,98.29342987976244
3.33,-0.06769368104369458,-0.5662426153295175,98.11377735503426
3.34,-0.03915256146851525,0.36412619252317524,98.09179455664979
3.35,-0.0461048854675974,-0.5680896322481133,97.97960648213599
3.36,-0.024150178102074826,0.3694033837191633,97.86666038009169
3.37,-0.00036591178942537616,-0.5385373615505802,97.66502505697905
3.38,0.026345648838627084,0.36491777120257346,97.38379684316403
3.39,0.017563765892418055,-0.5298299960771999,97.13667986822146
3.4,0.03915256146851525,0.38391565950813045,96.90093330623638
3.41,0.014636471577015045,-0.5258721026802089,96.83346885602201
3.42,-0.00036591178942537616,0.3907760080629149,96.58635188107944
3.43,-0.006586412209656771,-0.5224419284028167,96.39532894339378
3.44,-0.030004766732880845,0.3699311028387621,96.28314086887997
3.45,-0.04025029683679138,-0.5432868336269695,96.05876471985236
3.46,-0.058179974518634804,0.34275356817942365,95.83438857082476
3.47,-0.06000953346576169,-0.555424373377742,95.49706631975285
3.48,-0.07098688714852297,0.33193532622764815,95.28406058368272
3.49,-0.08635518230438877,-0.5641317388511222,95.00283236986772
3.5,-0.1840536300809642,0.30739638716630374,94.82317984513953
3.51,-0.18515136544924032,-0.5066103548148525,94.71099177062572
3.52,0.3022431380653607,0.4353682736690139,94.54270965885502
3.53,0.9586888882944855,-0.3688756645995645,94.46387479568317
3.54,1.0172347746025456,0.38444337862772926,94.18340460939865
3.55,0.09696662419772467,-0.5802271719988858,94.02573488305494
3.56,-0.3176114332212265,0.24327851413504897,93.85745277128423
3.57,-0.21369248502441968,-0.5733668234441014,93.68917065951352
3.58,-0.14343742145474744,0.2902455157793426,93.59896538338418
3.59,-0.07171871072737372,-0.5409120975887749,93.40794244569851
3.6,-0.038054826100239116,0.3224363820748697,93.39657203274103
3.61,-0.06257091599173932,-0.5211226306038197,93.28438395822724
3.62,-0.06000953346576169,0.31795076955827983,93.23966033392782
3.63,-0.03402979641655998,-0.49737527022187344,93.09336102054156
3.64,-0.038054826100239116,0.3139928761612888,92.99254335898524
3.65,-0.0230524427337987,-0.5026524614178615,92.92507890877086
3.66,-0.01719785410299268,0.3369486578638368,92.77953762291511
3.67,0.021222883786671816,-0.4551577406539691,92.71207317270074
3.68,-0.006220500420231394,0.3358932196246392,92.53242064797256
3.69,0.00036591178942537616,-0.4894594834278914,92.49830940910012
3.7,0.011709177261612037,0.3393233939020314,92.40886216050127
3.71,0.03915256146851525,-0.45014440901778047,92.2284516082426
3.72,0.04025029683679138,0.33826795566283385,92.12763394668626
3.73,0.07098688714852297,-0.4366875714680109,92.00407545921497
3.74,0.10684624251220984,0.3345739218256422,91.95935183491557
3.75,0.1705148938722253,-0.3881374124649209,92.00407545921497
3.76,0.2008855723945315,0.37336127711615436,92.61049748361391
3.77,0.2824839014363904,-0.3672925072407681,94.31757548229692
3.78,0.3545685239531895,0.41399564932526234,98.04707093235037
3.79,0.4431191769941305,-0.3037023533291121,104.12266158929721
3.8,0.5042264458281683,0.45383844285497205,110.88426716134533
3.81,0.561308684978527,-0.3153121739602858,116.80294611947895
3.82,0.5587473024525493,0.424286172157439,120.94784065624567
3.83,0.493249092145407,-0.3237556798738667,123.6092753158265
3.84,0.3757914077398613,0.3635984734035765,124.87821340188127
3.85,0.2316221627062631,-0.39499776101970535,124.66520766581114
3.86,0.1057485071439337,0.29605042609492943,123.30606430362702
3.87,0.041348032205067504,-0.42692476775543303,121.10475235505889
3.88,-0.01719785410299268,0.24618096929284242,118.92618123240571
3.89,-0.03622526715311224,-0.4343128354298163,116.41028785868063
3.9,-0.06769368104369458,0.25066658180943224,113.99521214651188
3.91,-0.047934444414724275,-0.44064546486500195,111.5915068473006
3.92,-0.08342788798898576,0.2234890471500938,109.46902976190432
3.93,-0.06988915178024684,-0.43774300970720853,108.00906873816388
3.94,-0.09440524167174705,0.23272413174307288,107.11080611452296
3.95,-0.08269606441013501,-0.4343128354298163,107.12141849994994
3.96,-0.0936734180928963,0.2456532501732436,107.78469258913627
3.97,-0.05708223915035868,-0.40027495221569337,108.97479581201918
3.98,-0.08635518230438877,0.25356903696722566,110.51359169893149
3.99,-0.0966007124082993,-0.4147872280046605,111.71506533477188
4.0,-0.10025983030255306,0.22718308098728543,112.49052749847202
4.01,-0.06805959283311996,-0.3765275918337472,112.69216282158466
4.02,-0.0874529176726649,0.23694588469986333,112.71490364749963
4.03,-0.06000953346576169,-0.38180478302973525,112.46778667255705
4.04,-0.09586888882944855,0.22771080010688424,111.1313841362879
4.05,-0.06769368104369458,-0.34882233805480994,109.07561347357552
4.06,-0.09257568272462016,0.2456532501732436,106.84094831366544
4.07,-0.07793921114760512,-0.36148759692518123,105.04366503885309
4.08,-0.09550297704002317,0.24327851413504897,103.84219140301269
4.09,-0.0845256233572619,-0.35911286088698663,103.53898039081324
4.1,-0.08050059367358275,0.2543606156466239,103.86493222892766
4.11,-0.08781882946209027,-0.34591988289701653,104.62826595213981
4.12,-0.12038497872094875,0.24143149721645316,105.40297008830946
4.13,-0.09952800672370231,-0.3609598778055824,106.31336115243836
4.14,-0.122580449457501,0.2224336089108962,107.17751253720684
4.15,-0.0874529176726649,-0.3139928761612888,107.87413983773511
4.16,-0.09586888882944855,0.2657065767179982,108.222074474234
4.17,-0.08964838840921716,-0.3250749776728637,108.35700337466277
4.18,-0.10648033072278446,0.24143149721645316,108.32365016332083
4.19,-0.07867103472645587,-0.2978974430135253,108.0537923624633
4.2,-0.10757806609106059,0.22718308098728543,107.55955841257817
4.21,-0.11416447830071735,-0.3638623329633759,106.72876023915163
4.22,-0.11416447830071735,0.22876623834608184,105.69556871508195
4.23,-0.09184385914576941,-0.30238305553011513,104.57217191488292
4.24,-0.10025983030255306,0.2451255310536448,103.60644484102761
4.25,-0.06257091599173932,-0.28101043118636354,102.73016501577115
4.26,-0.09440524167174705,0.2321964126234741,102.01155491685842
4.27,-0.08964838840921716,-0.29499498785573186,101.31492761633014
4.28,-0.11672586082669499,0.22428062582949201,100.86541729074442
4.29,-0.09330750630347091,-0.29736972389392646,100.46138861698863
4.3,-0.0966007124082993,0.21715641771490815,100.21427164204607
4.31,-0.08635518230438877,-0.2794272738275671,99.95578425414602
4.32,-0.0966007124082993,0.23694588469986333,99.76476131646035
4.33,-0.06586412209656771,-0.2630679811200042,99.5176443415178
4.34,-0.038054826100239116,0.25884622816321373,99.43956750587643
4.35,-0.030004766732880845,-0.2630679811200042,99.37210305566205
4.36,-0.06110726883403782,0.23800132293906093,99.31600901840514
4.37,-0.006220500420231394,-0.25330517740742625,99.21443332931833
4.38,-0.010245530103910532,0.2606932450818095,99.113615667762
4.39,-0.023418354523224074,-0.22559992362848902,98.95670396894877
4.4,-0.06183909241288857,0.25647149212501913,98.83314548147749
4.41,-0.05964362167633631,-0.2451255310536448,98.73156979239067
4.42,-0.09147794735634404,0.23852904205865974,98.67547575513377
4.43,-0.10867580145933671,-0.27230306571298324,98.55191726766249
4.44,-0.13209415598256077,0.20264414192594102,98.30480029271992
4.45,-0.12221453766807563,-0.28048271206676473,98.13651818094921
4.46,-0.13428962671911304,0.20633817576313265,98.02433010643541
4.47,-0.18368771829153882,-0.2630679811200042,97.9121420319216
4.48,-0.25357687007178564,0.23061325526467766,97.59756060676466
4.49,0.2389403984947706,-0.15541328072184799,97.36181404477958
4.5,0.8844087950411341,0.34328128729902246,97.114697069837
4.51,1.084562543856815,-0.24354237369484838,96.8895628932789
4.52,0.119653155142098,0.13034662254090476,96.62046311995188
4.53,-0.3542026121637641,-0.3585851417673878,96.48553421952312
4.54,-0.2898021372248979,0.14723363436806652,96.31725210775241
4.55,-0.21552204397154653,-0.2741500826315791,96.18232320732365
4.56,-0.1533170397692326,0.1981585294093512,95.90185302103914
4.57,-0.10025983030255306,-0.24908342445063583,95.71083008335347
4.58,-0.10867580145933671,0.22718308098728543,95.56453076996723
4.59,-0.06769368104369458,-0.21979501331290216,95.51980714566781
4.6,-0.09550297704002317,0.19288133821336312,95.36213741932409
4.61,-0.03512753178483611,-0.23246027218327348,95.19385530755338
4.62,-0.08672109409381415,0.1870764278977763,95.07029682008209
4.63,-0.047934444414724275,-0.20924063092092607,95.04755599416714
4.64,-0.06988915178024684,0.2121430860787195,95.0142027828252
4.65,-0.028175207785753963,-0.20343572060533924,94.89064429535391
4.66,-0.038054826100239116,0.2121430860787195,94.68825094471077
4.67,0.0073182357885075225,-0.19604765293095597,94.45250438272568
4.68,0.014636471577015045,0.2577907899240161,94.25011103208254
4.69,0.04537306188874664,-0.17968836022339302,94.05984612192738
4.7,0.026345648838627084,0.22586378318828843,93.90217639558365
4.71,0.09184385914576941,-0.15831573587964143,93.74526469677042
4.72,0.11270083114301585,0.2767886782295731,93.80135873402733
4.73,0.1858831890280911,-0.10343294744136573,94.10456974622679
4.74,0.24479498712557662,0.3039662128889115,95.126390857339
4.75,0.3457866410069805,-0.06913120466744342,97.406537669079
4.76,0.42043264604975716,0.3577935630879896,101.83190239213023
4.77,0.4983718571973623,-0.034037883214122905,107.80667538752074
4.78,0.5261811531936909,0.35436338881059737,114.21958829553948
4.79,0.5378903304553029,-0.05303577151967988,119.26274545594713
4.8,0.4339713822584961,0.2825935885451599,122.91340604282871
4.81,0.3370047580607714,-0.11557048719213824,125.0245127152675
4.82,0.16795351134624764,0.2131985243179171,125.83332809030959
4.83,0.09257568272462016,-0.17968836022339302,125.15944161569628
4.84,-0.006586412209656771,0.18179923670178824,123.41825237814083
4.85,-0.0073182357885075225,-0.17335573078820735,121.08201152914393
4.86,-0.07684147577932898,0.17546660726660257,118.77988191901947
4.87,-0.06769368104369458,-0.20290800148574042,116.39891744572316
4.88,-0.08781882946209027,0.16913397783141693,113.96185893516993
4.89,-0.08489153514668726,-0.21399010299731533,111.64760088455749
4.9,-0.10062574209197844,0.1327213585790994,109.77224077410379
4.91,-0.06293682778116469,-0.2018525632465428,108.41309741191968
4.92,-0.1042848599862322,0.12929118430170716,107.73921093730635
4.93,-0.0706209753590976,-0.18496555141938106,108.02043915112137
4.94,-0.09843027135542619,0.15171924688465635,108.89596094884733
4.95,-0.06110726883403782,-0.16412064619522826,110.1656570624326
4.96,-0.10830988966991134,0.15541328072184799,111.23220179784423
4.97,-0.07464600504277673,-0.1762581859460008,112.11985203605816
4.98,-0.10465077177565757,0.16623152267362348,112.31087497374384
4.99,-0.06257091599173932,-0.16412064619522826,111.9849231356294
5.0,-0.09733253598715005,0.16042661235803665,110.81680271113095
5.01,-0.05195947409840341,-0.13799854977508744,109.41293572464741
5.02,-0.0874529176726649,0.15989889323843784,107.85139901182016
5.03,-0.0720846225167991,-0.1680785395922193,106.52636688850849
5.04,-0.10062574209197844,0.1696616969510157,105.47043453852383
5.05,-0.08489153514668726,-0.15831573587964143,104.94284737729677
5.06,-0.11855541977382186,0.1345683754976952,104.86401251412491
5.07,-0.09184385914576941,-0.16253748883643185,105.380987289925
5.08,-0.13099642061428465,0.13034662254090476,106.11096780179521
5.09,-0.07903694651588125,-0.12718030782331194,106.89704235092233
5.1,-0.12038497872094875,0.14037328581328207,107.52620520123624
5.11,-0.09184385914576941,-0.14274802185147667,107.95297470090698
5.12,-0.12148271408922488,0.14591433656906952,108.24481530014897
5.13,-0.07867103472645587,-0.12929118430170716,108.39111461353521
5.14,-0.12806912629888165,0.10316908788156633,108.34563296170529
5.15,-0.0889165648303664,-0.16069047191783603,107.97495749929145
5.16,-0.1240440966152025,0.13615153285649162,107.4920939623638
5.17,-0.07574374041105286,-0.11952838058912928,106.77348386345105
5.18,-0.09586888882944855,0.15303854468365338,105.86385082685266
5.19,-0.07501191683220211,-0.11715364455093465,104.74045402665362
5.2,-0.11672586082669499,0.12401399310571912,103.673909291242
5.21,-0.07793921114760512,-0.11847294234993166,102.65133015259929
5.22,-0.11123718398531435,0.13905398801428503,101.97744367798597
5.23,-0.06952323999082147,-0.10580768347956035,101.393762479502
5.24,-0.10538259535450833,0.12533329090471612,100.9889757782157
5.25,-0.07464600504277673,-0.08601821649460517,100.60768793037488
5.26,-0.09879618314485156,0.15937117411883903,100.31508930360239
5.27,-0.06769368104369458,-0.08549049737500637,100.07934274161731
5.28,-0.1105053604064636,0.13087434166050357,99.95578425414602
5.29,-0.07281644609564986,-0.09182312681019203,99.79887255533279
5.3,-0.12623956735175476,0.10897399819715317,99.6753140678615
5.31,-0.08086650546300812,-0.08496277825540756,99.57449640630519
5.32,-0.11233491935359047,0.12401399310571912,99.48429113017585
5.33,-0.06659594567541846,-0.07388067674383267,99.394843881577
5.34,-0.0936734180928963,0.1467059152484677,99.24854456819077
5.35,-0.05122765051955266,-0.06807576642824581,99.18108011797638
5.36,-0.07684147577932898,0.13087434166050357,99.1697097050189
5.37,0.0032932061048283855,-0.05778524359606912,99.113615667762
5.38,-0.04427532652047051,0.14142872405247967,98.90060993169187
5.39,0.017563765892418055,-0.011345961071374302,98.64212254379183
5.4,-0.024882001680925577,0.14142872405247967,98.38363515589178
5.41,0.004390941473104514,-0.054882788438275695,98.2039826311636
5.42,-0.05269129767725417,0.13799854977508744,97.9121420319216
5.43,-0.005488676841380642,0.0002638595597994024,97.75447230557789
5.44,-0.08672109409381415,0.12005609970872808,97.59756060676466
5.45,-0.0706209753590976,-0.04380068692670079,97.45126129337842
5.46,-0.11453039009014274,0.10264136876196753,97.1821615200514
5.47,-0.07867103472645587,-0.049077878122688844,96.90093330623638
5.48,-0.1240440966152025,0.08707365473380278,96.67655715720878
5.49,-0.09330750630347091,-0.04380068692670079,96.53025784382254
5.5,-0.27699522459500975,0.08285190177701235,96.31725210775241
5.51,-0.06476638672829158,0.020581045664353384,96.18232320732365
5.52,0.4925172685665563,0.2121430860787195,96.12622917006675
5.53,1.2045816107883383,0.12533329090471612,96.00267068259546
5.54,0.6055840114989975,0.08997610989159621,95.74418329469542
5.55,-0.13209415598256077,-0.058312962715667924,95.53117755862529
5.56,-0.3695709073196299,-0.008443505913580876,95.27269017072524
5.57,-0.2085697199724644,-0.02348350082214681,95.0142027828252
5.58,-0.15295112797980723,0.06622874950964999,94.86790346943896
5.59,-0.06403456314944082,-0.00897122503317968,94.89064429535391
5.6,-0.09843027135542619,0.07546383410262908,94.91338512126887
5.61,-0.05086173873012728,0.0110821015115749,94.84592067105449
5.62,-0.07903694651588125,0.0657010303900512,94.75571539492515
5.63,-0.025979737049201704,0.028496832458335456,94.69962135766825
5.64,-0.04573897367817202,0.08654593561420397,94.73373259654069
5.65,-0.01719785410299268,0.02110876478395219,94.6662681463263
5.66,-0.041348032205067504,0.07889400838002131,94.56469245723949
5.67,0.014636471577015045,0.05752138403626972,94.28422227095498
5.68,-0.02744338420690321,0.05752138403626972,94.09319933326931
5.69,0.04025029683679138,0.06490945171065299,93.94690001988307
5.7,-0.012441000840462789,0.051716473720682866,93.77861790811237
5.71,0.06988915178024684,0.07599155322222788,93.56561217204224
5.72,0.04025029683679138,0.08522663781520697,93.39657203274103
5.73,0.1105053604064636,0.10739084083835676,93.26240115984277
5.74,0.09257568272462016,0.08760137385340158,93.3632188213991
5.75,0.19429916018487473,0.1443311792102731,93.82334153241179
5.76,0.19429916018487473,0.12111153794792569,95.26131975776777
5.77,0.3428593466915774,0.18074379846259062,98.5973989194924
5.78,0.3545685239531895,0.13852626889468625,104.50470746466854
5.79,0.5071537401435713,0.2467086884124412,111.50205959870175
5.8,0.5152037995109296,0.17546660726660257,117.75806080790727
5.81,0.59350892244796,0.2345711486616687,122.61019503062926
5.82,0.5173992702474819,0.16280134839623125,126.02435102799525
5.83,0.4595852075182724,0.20844905224152788,127.69731778780582
5.84,0.29492490227685314,0.0881290929730004,127.7086882007633
5.85,0.2177175147080988,0.15013608952585994,126.29345080132228
5.86,0.06732776925426921,0.009498944152778485,124.03604481549725
5.87,0.04098212041564213,0.10950171731675198,121.62172713085899
5.88,-0.05781406272920943,-0.018206309626158764,119.2741158689046
5.89,-0.022320619154947943,0.08469891869560817,116.97198625878015
5.9,-0.08964838840921716,-0.03905121485031155,114.68046903408268
5.91,-0.025979737049201704,0.10316908788156633,112.65880961024271
5.92,-0.079768770094732,-0.029816130257332468,111.075290099031
5.93,-0.03183432568000773,0.10844627907755437,110.3900332114602
5.94,-0.08086650546300812,-0.050661035481485255,110.48023848758955
5.95,-0.04281167936276901,0.10950171731675198,111.37850111123046
5.96,-0.09769844777657542,-0.06464559215085358,112.56860433411337
5.97,-0.04500715009932126,0.10369680700116513,113.91637728334001
5.98,-0.08342788798898576,-0.04380068692670079,115.02840367058155
5.99,-0.023418354523224074,0.1575241572002432,115.81447821970868
6.0,-0.09550297704002317,-0.07915786793982071,116.01687157035182
6.01,-0.04427532652047051,0.12981890342130598,115.69091973223739
6.02,-0.08379379977841113,-0.06622874950964999,114.79265710859647
6.03,-0.05086173873012728,0.1438034600906743,113.38879012211294
6.04,-0.10867580145933671,-0.08549049737500637,111.5354128100437
6.05,-0.04866626799357503,0.1588434549992402,109.59258824937561
6.06,-0.079768770094732,-0.06174313699306015,107.79530497456325
6.07,-0.04317759115219438,0.1234862739861203,106.4589024382941
6.08,-0.10172347746025456,-0.08549049737500637,105.78501596368079
6.09,-0.05122765051955266,0.16755082047262052,105.76303316529632
6.1,-0.10940762503818746,-0.11609820631173705,106.33534395082282
6.11,-0.06293682778116469,0.14723363436806652,107.06532446269304
6.12,-0.11233491935359047,-0.11425118939314123,107.85139901182016
6.13,-0.0567163273609333,0.1569964380806444,108.53665589939095
6.14,-0.11416447830071735,-0.10871013863735378,109.17718916266233
6.15,-0.043909414731045135,0.18127151758218943,109.5364942121187
6.16,-0.11233491935359047,-0.11847294234993166,109.67142311254746
6.17,-0.06586412209656771,0.16121819103743484,109.49177058781927
6.18,-0.10977353682761284,-0.11715364455093465,109.06500108814853
6.19,-0.03329797283770923,0.1899788830555697,108.44720865079212
6.2,-0.10172347746025456,-0.13694311153588984,107.90825107660756
6.21,-0.07171871072737372,0.16517608443442588,107.18888295016433
6.22,-0.11123718398531435,-0.15251082556405457,106.38006757512224
6.23,-0.03622526715311224,0.2010609845671446,105.44845174013938
6.24,-0.11123718398531435,-0.1445950387700725,104.57217191488292
6.25,-0.058179974518634804,0.19868624852894998,103.7860973657558
6.26,-0.11672586082669499,-0.16596766311382408,103.2130285526988
6.27,-0.07647556398990361,0.17098099475001274,102.74153542872862
6.28,-0.1134326547218666,-0.1670231013530217,102.32613634201536
6.29,-0.06476638672829158,0.19631151249075537,101.93272005368655
6.3,-0.12148271408922488,-0.1791606411037942,101.6181386285296
6.31,-0.06988915178024684,0.19763081028975238,101.52869137993076
6.32,-0.1134326547218666,-0.18496555141938106,101.34903885520258
6.33,-0.07501191683220211,0.19631151249075537,101.09055146730253
6.34,-0.12623956735175476,-0.1902427426153691,100.73124641784617
6.35,-0.0567163273609333,0.22480834494909083,100.52885306720302
6.36,-0.10977353682761284,-0.19182589997416552,100.34920054247483
6.37,-0.06074135704461244,0.2102960691601237,100.30447691817541
6.38,-0.12331227303635175,-0.22665536186768664,100.1915308161311
6.39,-0.05781406272920943,0.22005887287270157,100.13543677887421
6.4,-0.11928724335267261,-0.20581045664353384,99.94517186871904
6.41,-0.06257091599173932,0.21715641771490815,99.78750214237532
6.42,-0.12843503808830703,-0.23140483394407588,99.47292071721837
6.43,-0.06659594567541846,0.2234890471500938,99.30463860544766
6.44,-0.10940762503818746,-0.22955781702548006,99.13635649367696
6.45,-0.04025029683679138,0.2213781706716986,98.96731635437575
6.46,-0.06879141641197072,-0.22718308098728543,98.69821658104873
6.47,0.025247913470350953,0.2767886782295731,98.4844528174481
6.48,-0.041348032205067504,-0.19763081028975238,98.3161707056774
6.49,0.022320619154947943,0.25937394728281254,98.16987139229116
6.5,-0.06659594567541846,-0.22559992362848902,98.01295969347794
6.51,-0.013172824419313542,0.27810797602857007,97.73248950719342
6.52,-0.07391418146392598,-0.21108764783952189,97.43989088042093
6.53,-0.043909414731045135,0.2583185090436149,97.14805028117895
6.54,-0.10538259535450833,-0.2664981553973964,96.96839775645077
6.55,-0.06293682778116469,0.24037605897725556,96.81148605763754
6.56,-0.1273373027200309,-0.2712476274737856,96.70991036855072
6.57,-0.05195947409840341,0.26122096420140833,96.4969046324806
6.58,-0.1335578031402623,-0.2775802569089713,96.3847165579668
6.59,-0.20344695492050913,0.23114097438427647,96.19369362028112
6.6,-0.1701489820827999,-0.23246027218327348,96.01404109555294
6.61,0.46361023720195155,0.420328278760448,95.74418329469542
6.62,1.0527282181768072,-0.1229585548665215,95.51980714566781
6.63,0.7713420521086929,0.3015914768507169,95.30604338206719
6.64,-0.10867580145933671,-0.333782343146244,95.26131975776777
6.65,-0.3121227563798458,0.19525607425155775,95.20522572051087
6.66,-0.27992251891041275,-0.32903287106985474,95.17111448163843
6.67,-0.12550774377290402,0.2883984988607468,95.11502044438151
6.68,-0.1211168022997995,-0.29657814521452824,95.03694360874016
6.69,-0.05488676841380642,0.30000831949192047,94.86790346943896
6.7,-0.11635994903726961,-0.3037023533291121,94.69962135766825
6.71,-0.031102502101156972,0.29420340917633364,94.50859841998259
6.72,-0.1013575656708292,-0.3116181401230942,94.41915117138375
6.73,-0.03622526715311224,0.29367569005673483,94.39641034546878
6.74,-0.08342788798898576,-0.2984251621331241,94.32894589525439
6.75,-0.008415971156783652,0.3248111181130643,94.25011103208254
6.76,-0.05269129767725417,-0.2717753465933844,94.05984612192738
6.77,-0.0010977353682761284,0.3248111181130643,93.9249172214986
6.78,-0.0461048854675974,-0.29657814521452824,93.75663510972791
6.79,0.041348032205067504,0.35198865277240277,93.58759497042671
6.8,-0.02012514841839569,-0.27230306571298324,93.31849519709968
6.81,0.05012991515127653,0.33879567478243267,93.07137822215711
6.82,0.02561382525977633,-0.28048271206676473,92.94781973468582
6.83,0.12038497872094875,0.3854988168669269,93.04863739624214
6.84,0.09257568272462016,-0.24908342445063583,93.3632188213991
6.85,0.2210107208129272,0.4121486324066665,94.43052158434122
6.86,0.2436972517573005,-0.20343572060533924,96.86758009489444
6.87,0.38274373173894344,0.4717808929213314,101.77580835487332
6.88,0.3787187020552643,-0.20290800148574042,108.70569603869215
6.89,0.5291084475090939,0.4781135223565171,115.7477717970248
6.9,0.5075196519329968,-0.16887011827161752,121.41933378021584
6.91,0.5470381251909373,0.4659759826057446,125.45128221493826
6.92,0.42921452899596624,-0.21451782211691411,127.67533498942136
6.93,0.358959465426294,0.4343128354298163,128.20292215064842
6.94,0.1427055978758967,-0.3066048084869056,127.12500700227932
6.95,0.122580449457501,0.36412619252317524,124.91232464075371
6.96,-0.025247913470350953,-0.36439005208297465,122.35170764272921
6.97,-0.01427055978758967,0.3224363820748697,119.77972023174722
6.98,-0.10062574209197844,-0.3522525123322022,117.15163878350833
6.99,-0.043909414731045135,0.33826795566283385,114.59026375795332
7.0,-0.13209415598256077,-0.3905121485031155,112.29950456078635
7.01,-0.05781406272920943,0.31795076955827983,110.3339391742033
7.02,-0.1273373027200309,-0.3688756645995645,109.08698388653299
7.03,-0.04427532652047051,0.35383566969099856,108.67158479981973
7.04,-0.12221453766807563,-0.3683479454799657,109.368212100348
7.05,-0.07391418146392598,0.3203255055964745,110.72735546253212
7.06,-0.13721692103451605,-0.3775830300729448,112.34422818508577
7.07,-0.06696185746484383,0.33536550050504044,113.6920011343124
7.08,-0.11453039009014274,-0.36491777120257346,114.74793348429705
7.09,-0.0720846225167991,0.33747637698343563,115.07388532241148
7.1,-0.13941239177106832,-0.3828602212689328,114.87149197176834
7.11,-0.06110726883403782,0.32903287106985474,114.06267659672625
7.12,-0.11672586082669499,-0.39790021617749877,112.87181534631284
7.13,-0.04573897367817202,0.33985111302163024,111.0191960617741
7.14,-0.1211168022997995,-0.38417951906792985,108.95205498610423
7.15,-0.0567163273609333,0.34037883214122905,106.99786001247865
7.16,-0.13246006777198616,-0.38338794038853163,105.53789898873822
7.17,-0.06074135704461244,0.33985111302163024,104.7518244396111
7.18,-0.15441477513750873,-0.402649688253888,104.72908361369615
7.19,-0.08086650546300812,0.34037883214122905,105.33626366562558
7.2,-0.13099642061428465,-0.39790021617749877,106.2345262892665
7.21,-0.05781406272920943,0.3659732094417711,107.29045863925114
7.22,-0.12806912629888165,-0.378374608752343,108.16598043697711
7.23,-0.05781406272920943,0.36412619252317524,109.0195194363186
7.24,-0.13941239177106832,-0.42217529567904377,109.54786462507619
7.25,-0.07281644609564986,0.3422258490598249,109.83970522431817
7.26,-0.1489260982961281,-0.41874512140165154,109.7608703611463
7.27,-0.07501191683220211,0.3469753211362141,109.44628893598936
7.28,-0.1489260982961281,-0.4134679302056635,108.70569603869215
7.29,-0.0706209753590976,0.3659732094417711,107.9416042879495
7.3,-0.14636471577015045,-0.40660758165087907,106.9758772140942
7.31,-0.05012991515127653,0.3699311028387621,106.01015014023889
7.32,-0.1489260982961281,-0.4240223125976396,104.9201065513818
7.33,-0.04683670904644815,0.37520829403475014,103.96574989048398
7.34,-0.15404886334808335,-0.4308826611524241,103.11221089114248
7.35,-0.07867103472645587,0.3577935630879896,102.44969482948665
7.36,-0.14599880398072507,-0.4118847728468671,101.97744367798597
7.37,-0.07501191683220211,0.36016829912618425,101.59615583014514
7.38,-0.1350214502979638,-0.39499776101970535,101.30355720337265
7.39,-0.06952323999082147,0.37230583887695673,101.02308701708814
7.4,-0.1441692450335982,-0.401330390454891,100.77597004214559
7.41,-0.07171871072737372,0.36201531604478004,100.60768793037488
7.42,-0.13538736208738916,-0.4105654750478701,100.52885306720302
7.43,-0.0706209753590976,0.37336127711615436,100.37194136838978
7.44,-0.14197377429704594,-0.4047605647322832,100.20290122908858
7.45,-0.06805959283311996,0.3572658439683908,99.97852508006098
7.46,-0.122580449457501,-0.41425950888506174,99.87770741850466
7.47,0.012806912629888164,0.41109319416746887,99.7427785180759
7.48,-0.07281644609564986,-0.39499776101970535,99.64120282898908
7.49,0.014636471577015045,0.4018581095744898,99.46155030426088
7.5,-0.06586412209656771,-0.3963170588187024,99.25991498114824
7.51,0.004390941473104514,0.4023858286940886,99.01279800620567
7.52,-0.08269606441013501,-0.38470723818752867,98.84375786690447
7.53,-0.019027413050119558,0.38629039554632505,98.68684616809125
7.54,-0.11672586082669499,-0.39499776101970535,98.50719364336307
7.55,-0.07098688714852297,0.36201531604478004,98.36089432997682
7.56,-0.15990345197888936,-0.4337851163102175,98.23733584250554
7.57,-0.0706209753590976,0.36491777120257346,98.11377735503426
7.58,-0.14636471577015045,-0.425605469956436,97.87803079304916
7.59,-0.1072121543016352,0.3525163718920016,97.6870078553635
7.6,-0.3121227563798458,-0.4153149471242593,97.41790808203648
7.61,-0.1072121543016352,0.41109319416746887,97.23825555730829
7.62,0.3479821117435327,-0.30528551068790855,97.04723261962263
7.63,1.1163968695368225,0.4833907135525051,96.92367413215135
7.64,0.6977937824341923,-0.45225528549617566,96.68792757016625
7.65,-0.0567163273609333,0.27335850395218086,96.45218100818117
7.66,-0.3831096435283688,-0.5190117541254244,96.21567641866558
7.67,-0.2316221627062631,0.34275356817942365,96.04739430689489
7.68,-0.22174254439177793,-0.42982722291322645,95.83438857082476
7.69,-0.08159832904185887,0.39420618234030713,95.63199522018161
7.7,-0.15112156903268034,-0.425605469956436,95.407619071154
7.71,-0.053789033045530295,0.40634372209107966,95.24994934481028
7.72,-0.1211168022997995,-0.39737249705789995,95.14913168325396
7.73,-0.05269129767725417,0.39420618234030713,95.07029682008209
7.74,-0.1105053604064636,-0.41584266624385813,95.08166723303958
7.75,-0.027077472417477835,0.40766301989007664,95.07029682008209
7.76,-0.06988915178024684,-0.38127706391013644,95.03694360874016
7.77,0.002561382525977633,0.4213837169996456,94.85729108401198
7.78,-0.053789033045530295,-0.3897205698237173,94.57606287019696
7.79,0.015734206945291172,0.4100377559282713,94.25011103208254
7.8,-0.03439570820598536,-0.3633346138437771,94.14929337052621
7.81,0.04427532652047051,0.41927284052125036,94.07045850735436
7.82,-0.025979737049201704,-0.3789023278719418,94.00375208467047
7.83,0.10391894819680682,0.45964335317055893,93.90217639558365
7.84,0.06732776925426921,-0.3332546240266452,93.9249172214986
7.85,0.1705148938722253,0.4828629944329063,93.95827043284055
7.86,0.15112156903268034,-0.3110904210034954,94.22812823369807
7.87,0.3022431380653607,0.5319408725555952,95.00283236986772
7.88,0.33663884627134605,-0.23984833985765674,97.27160876865024
7.89,0.4526328835191903,0.558062968975736,101.5620445912727
7.9,0.44568055952010815,-0.24116763765665378,107.82941621343569
7.91,0.5602109496102509,0.5696727896069097,114.35451719596824
7.92,0.46397614899137696,-0.25040272224963284,119.7342385799173
7.93,0.4343372940479215,0.5066103548148525,123.56455169152707
7.94,0.23564719238994222,-0.3366847983040374,125.72114001579578
7.95,0.19283551302717322,0.44354792002279536,126.29345080132228
7.96,0.031102502101156972,-0.40317740737348684,125.43991180198078
7.97,0.04427532652047051,0.4237584530378402,123.53044045265463
7.98,-0.08635518230438877,-0.4227030147986426,121.16084639231579
7.99,-0.01792967768184343,0.40344126693328625,118.71241746880509
8.0,-0.0966007124082993,-0.4351044141092145,116.15180047078059
8.01,-0.03915256146851525,0.4008026713352922,113.65864792297046
8.02,-0.11160309577473972,-0.43906230750620556,111.17610776058733
8.03,-0.05269129767725417,0.37573601315434896,109.00890705089162
8.04,-0.119653155142098,-0.4482973920991846,107.31244143763561
8.05,-0.05195947409840341,0.3717781197573579,106.60520175168035
8.06,-0.09440524167174705,-0.4205921383202474,106.74013065210912
8.07,-0.027077472417477835,0.4116209132870677,107.61565244983507
8.08,-0.09074612377749328,-0.4322019589514211,108.7390492500341
8.09,-0.031102502101156972,0.40581600297148085,109.86244605023313
8.1,-0.11123718398531435,-0.43563213322881333,110.51359169893149
8.11,-0.027077472417477835,0.4105654750478701,110.54694491027342
8.12,-0.10757806609106059,-0.42929950379362763,109.86244605023313
8.13,-0.025979737049201704,0.420328278760448,108.67158479981973
8.14,-0.09769844777657542,-0.4372152905876097,107.15552973882238
8.15,-0.010977353682761284,0.4237584530378402,105.78501596368079
8.16,-0.09733253598715005,-0.44011774574540313,104.90873613842433
8.17,-0.03329797283770923,0.4208559978800468,104.50470746466854
8.18,-0.1105053604064636,-0.4530468641755739,104.67298957643924
8.19,-0.0461048854675974,0.41927284052125036,105.07777627772553
8.2,-0.1072121543016352,-0.4351044141092145,105.78501596368079
8.21,-0.0461048854675974,0.40001109265589396,106.62718455006481
8.22,-0.12514183198347864,-0.45463002153437027,107.47011116397933
8.23,-0.04573897367817202,0.39262302498151075,108.09851598676272
8.24,-0.09330750630347091,-0.4372152905876097,108.63823158847778
8.25,-0.04500715009932126,0.4105654750478701,108.76179007594907
8.26,-0.13611918566623993,-0.4789051010359153,108.59274993664786
8.27,-0.031102502101156972,0.4227030147986426,108.222074474234
8.28,-0.11855541977382186,-0.45990721273035834,107.76195176322132
8.29,-0.05305720946667954,0.41399564932526234,106.90841276387981
8.3,-0.1134326547218666,-0.4314103802720229,105.79638637663827
8.31,-0.05086173873012728,0.4145233684448611,104.68435998939673
8.32,-0.10648033072278446,-0.4593794936107595,103.52760997785575
8.33,-0.0490321797830004,0.4092461772488731,102.51715927970102
8.34,-0.09879618314485156,-0.4686145782037386,101.68560307874398
8.35,-0.04683670904644815,0.4227030147986426,101.07918105434504
8.36,-0.10977353682761284,-0.447241953859987,100.50611224128805
8.37,-0.038786649679089874,0.43009108247302585,100.03461911731789
8.38,-0.10025983030255306,-0.44882511121878343,99.57449640630519
8.39,-0.0461048854675974,0.42798020599463066,99.41682667996147
8.4,-0.11635994903726961,-0.46280966788815175,99.32737943136263
8.41,-0.055618591992657174,0.4232307339182414,99.32737943136263
8.42,-0.1134326547218666,-0.4575324766921637,99.30463860544766
8.43,-0.043909414731045135,0.4237584530378402,99.27128539410572
8.44,-0.10538259535450833,-0.4720447524811308,99.15833929206143
8.45,-0.05086173873012728,0.425605469956436,99.1697097050189
8.46,-0.10465077177565757,-0.44935283033838225,99.21443332931833
8.47,-0.03512753178483611,0.4261331890760348,99.113615667762
8.48,-0.06074135704461244,-0.4585879149313613,98.90060993169187
8.49,0.0245160898915002,0.42850792511422947,98.6534929567493
8.5,-0.03915256146851525,-0.4443394987021936,98.39500556884926
8.51,0.03256614925885848,0.4533107237353733,98.18124180524863
8.52,-0.0490321797830004,-0.4530468641755739,98.12514776799173
8.53,0.002561382525977633,0.45172756637657685,97.99021886756297
8.54,-0.07171871072737372,-0.4593794936107595,97.84467758170723
8.55,-0.015002383366440422,0.47072545468213384,97.5748197808497
8.56,-0.1211168022997995,-0.5010693040590651,97.35044363182209
8.57,-0.0567163273609333,0.40581600297148085,97.09195624392206
8.58,-0.11526221366899349,-0.4915703599062866,96.85620968193696
8.59,-0.05488676841380642,0.4451310773815918,96.57573949565246
8.6,-0.13319189135083692,-0.49288965770528365,96.4294401822662
8.61,-0.1858831890280911,0.41980055964084917,96.23841724458055
8.62,-0.196494630921427,-0.470197735562535,96.07013513280984
8.63,0.43214182331136924,0.548827884382757,95.89048260808165
8.64,1.0143074802871426,-0.36254303516437886,95.65473604609657
8.65,0.9242931800885001,0.46254580832835235,95.45234269545342
8.66,-0.012075089051037413,-0.5303577151967988,95.2385789318528
8.67,-0.2901680490143233,0.36491777120257346,95.09303764599706
8.68,-0.2484541050198304,-0.5224419284028167,94.9581087455683
8.69,-0.1181895079843965,0.4314103802720229,94.86790346943896
8.7,-0.10538259535450833,-0.4910426407866878,94.72236218358321
8.71,-0.03037067852230622,0.4337851163102175,94.64352732041135
8.72,-0.0874529176726649,-0.4881401856288944,94.5540800718125
8.73,-0.012075089051037413,0.4562131788931667,94.48661562159812
8.74,-0.07354826967450061,-0.4986945680208705,94.34031630821188
8.75,-0.0036591178942537612,0.44645037518058883,94.40778075842626
8.76,-0.055618591992657174,-0.4802243988349123,94.46387479568317
8.77,0.0245160898915002,0.4794328201555141,94.47524520864064
8.78,-0.03439570820598536,-0.48655702827009795,94.34031630821188
8.79,0.05012991515127653,0.4810159775143105,94.11594015918428
8.8,0.0018295589471268806,-0.46571212304594517,93.88019359719918
8.81,0.06623003388599308,0.4667675612851428,93.74526469677042
8.82,0.01427055978758967,-0.48708474738969676,93.56561217204224
8.83,0.07867103472645587,0.4659759826057446,93.31849519709968
8.84,0.07171871072737372,-0.43853458838660675,93.14945505779848
8.85,0.1533170397692326,0.5105682482118435,93.10473143349905
8.86,0.1610011873471655,-0.4147872280046605,93.49814772182786
8.87,0.282117989646965,0.5672980535687151,94.68825094471077
8.88,0.2726042831219052,-0.3963170588187024,97.75447230557789
8.89,0.4065279980515929,0.5725752447647031,103.22439896565628
8.9,0.42518949931228706,-0.3575297035281902,110.45749766167458
8.91,0.561308684978527,0.6293050501215747,117.10615713167842
8.92,0.5441108308755344,-0.34064269170102845,122.41917209294358
8.93,0.5975339521316393,0.6308882074803711,126.23735676406538
8.94,0.4537306188874664,-0.38180478302973525,128.38257467537662
8.95,0.39042787931687634,0.5424952549475712,128.7198969264485
8.96,0.17527174713475516,-0.4773219436771189,127.45020081286326
8.97,0.1551465987163595,0.48180755619370874,125.01314230231003
8.98,0.023418354523224074,-0.5026524614178615,122.48663654315797
8.99,0.02268653094437332,0.4475058134197864,120.00409638077483
9.0,-0.06586412209656771,-0.5205949114842209,117.53292663134917
9.01,0.0014636471577015046,0.44935283033838225,115.10723853375342
9.02,-0.06293682778116469,-0.5461892887847629,112.91729699814276
9.03,0.0018295589471268806,0.44645037518058883,111.2996662480586
9.04,-0.07574374041105286,-0.5467170079043617,110.35668000011826
9.05,-0.012075089051037413,0.4422286222237984,110.31119834828834
9.06,-0.0845256233572619,-0.550147182181754,111.12001372333042
9.07,-0.022320619154947943,0.4319380993916217,112.60271557298582
9.08,-0.07464600504277673,-0.5380096424309815,114.1528818728556
9.09,-0.018295589471268806,0.4319380993916217,115.50065482208223
9.1,-0.07793921114760512,-0.5398566593495773,116.3200825825513
9.11,-0.008415971156783652,0.4614903700891547,116.79157570652147
9.12,-0.07757329935817975,-0.5327324512349934,116.57856997045134
9.13,-0.03183432568000773,0.4343128354298163,115.81447821970868
9.14,-0.0706209753590976,-0.5195394732450233,114.3211639846263
9.15,-0.01719785410299268,0.43932616706600497,112.52388070981395
9.16,-0.08196424083128426,-0.5142622820490352,110.43475683575963
9.17,-0.019027413050119558,0.43299353763081927,108.53665589939095
9.18,-0.07391418146392598,-0.5322047321153945,106.9197831768373
9.19,-0.027077472417477835,0.44064546486500195,105.8865916527676
9.2,-0.08964838840921716,-0.5311492938761969,105.48180495148132
9.21,-0.03585935536368686,0.4475058134197864,105.74029233938137
9.22,-0.07647556398990361,-0.5166370180872298,106.56047812738093
9.23,-0.022320619154947943,0.4480335325393852,107.57092882553565
9.24,-0.09074612377749328,-0.5066103548148525,108.50330268804902
9.25,-0.05195947409840341,0.4343128354298163,109.14307792378989
9.26,-0.09586888882944855,-0.5074019334942508,109.61532907529056
9.27,-0.04427532652047051,0.4451310773815918,109.74949994818883
9.28,-0.0845256233572619,-0.501597023178664,109.67142311254746
9.29,-0.03037067852230622,0.444603358261993,109.32273044851807
9.3,-0.08159832904185887,-0.505554916575655,108.83986691159042
9.31,-0.03585935536368686,0.4261331890760348,108.16598043697711
9.32,-0.0966007124082993,-0.5195394732450233,107.4807235494063
9.33,-0.03695709073196299,0.4696700164429362,106.63855496302229
9.34,-0.0936734180928963,-0.5166370180872298,105.7736455507233
9.35,-0.039884385047366,0.44354792002279536,104.88675334003986
9.36,-0.08269606441013501,-0.501597023178664,104.13403200225468
9.37,-0.04427532652047051,0.4358959927886127,103.41542190334195
9.38,-0.07684147577932898,-0.49526439374347825,102.74153542872862
9.39,-0.024150178102074826,0.44988054945798106,102.28065469018544
9.4,-0.09074612377749328,-0.5142622820490352,101.94409046664403
9.41,-0.037323002521388364,0.44354792002279536,101.71971431761642
9.42,-0.09550297704002317,-0.5066103548148525,101.40513289245948
9.43,-0.031102502101156972,0.4469780943001876,101.1693863304744
9.44,-0.09550297704002317,-0.501597023178664,100.96699297983125
9.45,-0.025247913470350953,0.4430202009031966,100.87678770370191
9.46,-0.0845256233572619,-0.49288965770528365,100.68576476601623
9.47,-0.031102502101156972,0.46096265096955596,100.51748265424554
9.48,-0.09257568272462016,-0.5103043886520442,100.28173609226045
9.49,-0.028175207785753963,0.44011774574540313,100.1915308161311
9.5,-0.07793921114760512,-0.49579211286307706,100.06873035619033
9.51,-0.03915256146851525,0.42956336335342704,99.97852508006098
9.52,-0.09440524167174705,-0.49447281506408003,99.87770741850466
9.53,-0.024882001680925577,0.4353682736690139,99.76476131646035
9.54,-0.079768770094732,-0.4939450959444812,99.55175558039024
9.55,-0.043909414731045135,0.4179535427222533,99.27128539410572
9.56,-0.08635518230438877,-0.5031801805374603,98.97868676733323
9.57,-0.022320619154947943,0.4469780943001876,98.68684616809125
9.58,-0.04098212041564213,-0.4720447524811308,98.52993446927802
9.59,0.03439570820598536,0.4422286222237984,98.3161707056774
9.6,-0.024150178102074826,-0.4551577406539691,98.06905373073484
9.61,0.029638854943455466,0.4480335325393852,97.82193675579227
9.62,-0.016466030524141927,-0.4643928252469482,97.6870078553635
9.63,0.031102502101156972,0.4828629944329063,97.48537253225086
9.64,-0.05488676841380642,-0.4556854597735679,97.30572000752268
9.65,-0.028175207785753963,0.4422286222237984,96.93504454510882
9.66,-0.0874529176726649,-0.49579211286307706,96.58635188107944
9.67,-0.05195947409840341,0.401330390454891,96.31725210775241
9.68,-0.0936734180928963,-0.4794328201555141,96.22704683162307
9.69,-0.05708223915035868,0.4116209132870677,96.13759958302423
9.7,-0.11233491935359047,-0.5074019334942508,96.09211793119431
9.71,-0.1888104833434941,0.3884012720247203,95.96855944372302
9.72,-0.13136233240371004,-0.44882511121878343,95.78890691899484
9.73,0.5115446816166759,0.5493556035023557,95.55316035700974
9.74,1.1046876922752105,-0.3609598778055824,95.3515250338971
9.75,0.7592669630576555,0.4237584530378402,95.21659613346834
9.76,-0.1072121543016352,-0.5361626255123856,95.08166723303958
9.77,-0.3128545799586966,0.31663147175928286,95.00283236986772
9.78,-0.24918592859868116,-0.510832107771643,94.84592067105449
9.79,-0.09586888882944855,0.4018581095744898,94.77845622084011
9.8,-0.1134326547218666,-0.49737527022187344,94.72236218358321
9.81,-0.032932061048283855,0.39552548013930416,94.80119704675506
9.82,-0.07684147577932898,-0.4691422973233374,94.77845622084011
9.83,-0.021954707365522567,0.40344126693328625,94.69962135766825
9.84,-0.04866626799357503,-0.46096265096955596,94.3850399325113
9.85,0.02158879557609719,0.41399564932526234,94.2167578207406
9.86,-0.05086173873012728,-0.47151703336153206,94.2167578207406
9.87,0.011709177261612037,0.3989556544166964,94.32894589525439
9.88,-0.031102502101156972,-0.4482973920991846,94.34031630821188
9.89,0.035493443574261485,0.42903564423382823,94.28422227095498
9.9,-0.004390941473104514,-0.45119984725697804,94.11594015918428
9.91,0.05342312125610492,0.4314103802720229,93.83471194536926
9.92,0.017563765892418055,-0.41927284052125036,93.5315009331698
9.93,0.0812324172524335,0.4348405545494151,93.31849519709968
9.94,0.0644004749388662,-0.4100377559282713,93.28438395822724
9.95,0.14819427471727734,0.44935283033838225,93.38595964731405
9.96,0.1672216877673969,-0.3424897086196243,93.81272914698481
9.97,0.26748151806994996,0.5066103548148525,95.13776127029648
9.98,0.2744338420690321,-0.3475030402558129,98.4844528174481
9.99,0.41018711594584667,0.5424952549475712,104.33642535289783
