time_s,ECG,NIBP
0.0,-0.40707483821970014,124.51009990735479
0.01,-0.4078735462083588,123.77816088948077
0.02,-0.4060098942348219,122.61912849119824
0.03,-0.4014838822990895,121.45854865313163
0.04,-0.3974903423557961,119.13893641678249
0.05,-0.39609260337564345,116.33188064844536
0.06,-0.3916997094380208,113.15808165127919
0.07,-0.38770616949472747,109.92238506274946
0.08,-0.3859090765202455,106.81048365694683
0.09,-0.38437821954198303,104.0034278886097
0.1,-0.3839123065485988,103.94153029724616
0.11,-0.3853100455287515,103.85023134998492
0.12,-0.3887711134796057,103.97247909292794
0.13,-0.39309744841817346,101.53061911363578
0.14,-0.3941623924030517,101.59251670499933
0.15,-0.3881720824881117,99.51585251475213
0.16,-0.3782547916289333,96.52619885189253
0.17,-0.3715323327243895,91.67342768898997
0.18,-0.3279361883434373,89.65866109010634
0.19,-0.29006411788120556,87.49224539238199
0.2,-0.31522341952395355,86.33321299409945
0.21,-0.3344589702508164,85.23453074739639
0.22,-0.36441051982551637,84.83838616266965
0.23,-0.4221837310051599,84.22714744795456
0.24,-0.4376254187858941,84.34939519089758
0.25,-0.42710909693522164,84.16679729637511
0.26,-0.42817404092009986,84.31844639521582
0.27,-0.43336564284638124,84.65424082836309
0.28,-0.43682671079723545,85.50842758918012
0.29,-0.4372926237906197,86.97385306471223
0.3,-0.4800235011838583,87.03420321629169
0.31,-0.5194264286243525,86.97385306471223
0.32,-0.2717603931411111,87.09610080765525
0.33,0.5696119139117387,86.97385306471223
0.34,1.6488660835867612,87.1564509592347
0.35,1.541107064116896,90.66604438954816
0.36,0.25864827032729804,90.42309634344622
0.37,-0.5548358161215533,89.44511439990208
0.38,-0.6038232394259515,88.40832974456256
0.39,-0.502320765867246,86.97385306471223
0.4,-0.44694367865357854,86.45546073704247
0.41,-0.41699212907887856,85.50842758918012
0.42,-0.3986884043387841,84.71613841972663
0.43,-0.38497725053347703,83.95325060617085
0.44,-0.37046738873951124,83.95325060617085
0.45,-0.3570224709304237,83.00621745830848
0.46,-0.3411814291553602,82.27427844043447
0.47,-0.3242754433954184,81.72493731708295
0.48,-0.30184506071392087,81.44949303551513
0.49,-0.27209318813638556,80.90015191216361
0.5,-0.23408799967604405,80.53495612311865
0.51,-0.1878294953328963,80.1682128942896
0.52,-0.1299897251541979,79.46722267209735
0.53,-0.055843000207051734,79.06953064758653
0.54,0.0262242456276262,78.64243726717801
0.55,0.10223462254830926,78.2153438867695
0.56,0.16267019369014832,77.54375502047495
0.57,0.1866314333499083,76.99441389712342
0.58,0.13990701601337632,77.51280622479317
0.59,0.022430382681497538,77.48340486889549
0.6,-0.11794254632526302,77.48340486889549
0.61,-0.23741594962878848,79.31402613347257
0.62,-0.3172201894956002,85.32582969465763
0.63,-0.36221407285670504,95.57916570403016
0.64,-0.3845113375400928,107.17722688577588
0.65,-0.39263153542478924,117.09476846200114
0.66,-0.391566591439911,123.32011871339047
0.67,-0.3911006784465268,125.57938079816016
0.68,-0.39369647940966745,124.99909087912685
0.69,-0.39429551040116145,124.1743054742075
0.7,-0.39263153542478924,123.90040863242379
0.71,-0.3912337964446366,123.01527307592498
0.72,-0.3880389644900019,122.46593195257344
0.73,-0.3840454245467086,121.42759985744985
0.74,-0.38191553657695215,121.39819850155216
0.75,-0.3791866176157017,117.09476846200114
0.76,-0.37552587266768284,110.56457257314632
0.77,-0.37659081665256106,107.08438049873055
0.78,-0.3770567296459453,104.12412819176865
0.79,-0.3770567296459453,101.53061911363578
0.8,-0.38071747459396416,99.66904905337692
0.81,-0.38617531251646503,97.92972673606108
0.82,-0.3905016474550328,96.09910547148401
0.83,-0.3912337964446366,94.26693676712284
0.84,-0.3905016474550328,92.40536670686399
0.85,-0.38617531251646503,90.33024995640088
0.86,-0.37472716467902417,88.37738094888078
0.87,-0.36208095485859526,86.63805863156496
0.88,-0.3184182514785882,85.20358195171461
0.89,-0.29192776985474245,84.34939519089758
0.9,-0.32334361740865,83.46425963439879
0.91,-0.3416473421487444,83.03716625399026
0.92,-0.3733959846979264,83.55555858166002
0.93,-0.42584447595317876,83.49520843008055
0.94,-0.43516273582086323,83.5865073773418
0.95,-0.4260441529503434,83.46425963439879
0.96,-0.4280409229219901,83.8913530148073
0.97,-0.42983801589647214,84.99003526151036
0.98,-0.43043704688796613,87.00480186039401
0.99,-0.432300698861503,88.92672207223232
1.0,-0.48734499107989604,89.20216635380014
1.01,-0.5027866788606302,89.11086740653889
1.02,-0.17225468955405232,91.52023115036519
1.03,0.7569754962512507,91.06373641405898
1.04,1.745909104208789,91.09313776995667
1.05,1.3800342864040651,89.96505416735592
1.06,0.06789017903598661,89.2625165053796
1.07,-0.5859188686801864,88.22573185004009
1.08,-0.5714090068862206,87.58354433964323
1.09,-0.4693740613350761,87.3096474978595
1.1,-0.4231155569919283,87.43189524080252
1.11,-0.394561746397381,86.24191404683822
1.12,-0.3779885556327137,85.57032518054366
1.13,-0.36574169980661414,84.68518962404487
1.14,-0.3535614029795695,84.01360075775031
1.15,-0.3378534792026157,83.06811504967204
1.16,-0.31828513348047843,81.48044183119691
1.17,-0.2964537817904749,80.93110070784537
1.18,-0.2700964181647389,80.50400732743687
1.19,-0.23927960160232536,80.07691394702834
1.2,-0.2022062391287523,79.86336725682409
1.21,-0.150889250857433,78.97823170032528
1.22,-0.0859276677798615,78.79563380580281
1.23,-0.007787402889421994,78.18439509108772
1.24,0.07321489896037772,78.24629268245127
1.25,0.14589732592831633,77.48340486889549
1.26,0.20387021410512451,77.1770117916459
1.27,0.22157490785372494,77.05631148848697
1.28,0.16386825567313631,76.7205170553397
1.29,0.03907013244521975,77.39210592163424
1.3,-0.10116967856343104,79.06953064758653
1.31,-0.2133215919709187,79.03858185190475
1.32,-0.285005633953034,79.13142823895008
1.33,-0.32653844936328463,85.99741856095218
1.34,-0.34803700605801374,96.1285068273817
1.35,-0.3553584959540515,107.17722688577588
1.36,-0.35688935293231394,116.88122177179689
1.37,-0.35555817295121617,117.03441831042169
1.38,-0.35156463300792284,123.2891699177087
1.39,-0.3512318380126484,122.55723089983469
1.4,-0.3510987200145386,122.58817969551646
1.41,-0.34670582607691597,121.03145527272311
1.42,-0.3454412050948731,119.50567964561154
1.43,-0.3469720620731355,116.36282944412713
1.44,-0.3465061490797513,116.05643636687755
1.45,-0.3447090561052693,109.49529168234095
1.46,-0.34271228613362265,106.01664704770927
1.47,-0.3441100251137753,103.23899263526984
1.48,-0.34623991308353175,100.82962889144353
1.49,-0.3482366830551784,99.15065672570717
1.5,-0.3530954899861853,96.8619932850398
1.51,-0.3582870919124666,95.12267096772396
1.52,-0.3607497748774975,93.59689534061239
1.53,-0.36634073079810814,91.88697437919424
1.54,-0.37306318970265195,90.02540431893539
1.55,-0.3665404077952728,87.79709102984748
1.56,-0.3546263469644477,86.39356314567893
1.57,-0.33339402626593817,84.65424082836309
1.58,-0.2864033729331867,83.8913530148073
1.59,-0.28593745993980246,83.86040421912551
1.6,-0.31708707149749044,83.1284652012515
1.61,-0.3244085613935282,83.00621745830848
1.62,-0.37033427074140146,83.06811504967204
1.63,-0.416725893082659,82.97681610241081
1.64,-0.41353106112802435,83.06811504967204
1.65,-0.40754075121308436,83.03716625399026
1.66,-0.41186708615165213,83.06811504967204
1.67,-0.41592718509400034,83.83100286322784
1.68,-0.418522986057141,85.0813342087716
1.69,-0.433498760844491,86.60710983588318
1.7,-0.49466648097593385,88.62187643476682
1.71,-0.426310388946563,88.59092763908505
1.72,0.11854157731675702,90.69699318522993
1.73,1.2111075468027572,89.87375522009468
1.74,1.8290412940283451,89.78090883304935
1.75,0.9314266327741144,88.6528252304486
1.76,-0.2783497340475451,87.8899374168928
1.77,-0.6045553884155553,87.70579208258624
1.78,-0.5128370877179185,87.1564509592347
1.79,-0.4280409229219901,86.30226419841767
1.8,-0.3880389644900019,85.0813342087716
1.81,-0.36028386188411327,84.99003526151036
1.82,-0.3448421741033791,84.31844639521582
1.83,-0.3250075923850222,83.433310838717
1.84,-0.30610483665343374,83.03716625399026
1.85,-0.292194005850962,82.57912407789998
1.86,-0.27448931210236155,81.44949303551513
1.87,-0.25498752537927916,80.53495612311865
1.88,-0.2337552046807696,80.23011048565314
1.89,-0.20387021410512451,79.74111951388107
1.9,-0.16054030572039188,79.49662402799504
1.91,-0.1072931064764808,79.00918049600706
1.92,-0.04073410742159197,78.76468501012103
1.93,0.0381383064584513,78.24629268245127
1.94,0.11794254632526302,77.87954945362222
1.95,0.1867645513480181,77.42150727753193
1.96,0.23115940371762894,77.20796058732768
1.97,0.2194450198839685,76.62767066829437
1.98,0.12240199926194058,76.7205170553397
1.99,-0.024427152653144203,76.96346510144164
2.0,-0.15914256674023922,79.7101707181993
2.01,-0.2554534383726634,87.64544193100677
2.02,-0.31296041355608734,98.90616123982113
2.03,-0.3436441121203911,109.95333385843124
2.04,-0.36041697988222304,118.74279183205574
2.05,-0.3717320097215542,123.62496435085598
2.06,-0.3775226426393295,124.9077919318656
2.07,-0.3776557606374393,124.57199749871833
2.08,-0.3782547916289333,123.90040863242379
2.09,-0.3803846795986897,123.41141766065172
2.1,-0.3833132755571048,123.41141766065172
2.11,-0.38437821954198303,123.38201630475403
2.12,-0.3803846795986897,123.53366540359474
2.13,-0.37732296564216483,122.55723089983469
2.14,-0.3775226426393295,121.54984760039287
2.15,-0.3805843565958544,120.1463197162243
2.16,-0.3817824185788424,117.94895522281817
2.17,-0.3781216736308235,105.04021254394922
2.18,-0.3751930776724084,101.68381565226056
2.19,-0.37672393465067083,99.21100687728664
2.2,-0.3797856486071957,97.22718907408476
2.21,-0.3811833875873484,95.57916570403016
2.22,-0.3822483315722266,93.99303992533912
2.23,-0.3868409025070139,92.28466640370506
2.24,-0.39030197045786813,90.39214754776444
2.25,-0.3799187666053055,88.62187643476682
2.26,-0.36574169980661414,86.79125517018974
2.27,-0.32866833733304107,85.14323180013515
2.28,-0.29598786879709066,83.95325060617085
2.29,-0.31216170556742867,82.64102166926352
2.3,-0.3219458784284973,82.27427844043447
2.31,-0.3483698010532882,82.15203069749145
2.32,-0.410735583167719,82.33462859201394
2.33,-0.42983801589647214,82.27427844043447
2.34,-0.41765771906942745,82.30522723611625
2.35,-0.4209856690221719,82.18297949317324
2.36,-0.42418050097680654,82.701371820843
2.37,-0.41992072503729366,83.433310838717
2.38,-0.417324924074153,85.11228300445337
2.39,-0.4681094403530332,85.0813342087716
2.4,-0.4972622819390745,85.17263315603284
2.41,-0.2091949340295156,91.36858205152448
2.42,0.6713806234666637,91.21538551289969
2.43,1.6775530121794182,90.33024995640088
2.44,1.3996691911252575,89.9944555232536
2.45,0.11181911841221324,88.6528252304486
2.46,-0.5775324347992704,87.9193387727905
2.47,-0.5690128829202447,87.00480186039401
2.48,-0.4626516024305323,85.99741856095218
2.49,-0.4171918060760432,85.14323180013515
2.5,-0.3887711134796057,84.28904503931813
2.51,-0.3709333017328955,83.52615722576233
2.52,-0.36028386188411327,82.67042302516121
2.53,-0.34623991308353175,82.2433296447527
2.54,-0.33246220027916973,81.48044183119691
2.55,-0.31888416447197243,80.96204950352715
2.56,-0.29785152077062754,80.19916168997136
2.57,-0.2712944801477269,79.77206830956285
2.58,-0.24167572556830136,79.43627387641558
2.59,-0.20673225106448473,79.06953064758653
2.6,-0.16067342371850166,78.64243726717801
2.61,-0.0965771076286437,78.27569403834896
2.62,-0.014776097790185322,77.84860065794045
2.63,0.06762394303976706,77.42150727753193
2.64,0.1394411030199921,76.7205170553397
2.65,0.1944188362393303,76.62767066829437
2.66,0.2103929960125036,76.32282503082887
2.67,0.14955807087633521,76.53637172103312
2.68,0.020300494711741095,77.48340486889549
2.69,-0.12087114228367812,81.72493731708295
2.7,-0.2337552046807696,81.84718506002596
2.71,-0.3103646125929466,81.75588611276473
2.72,-0.3540273159729537,81.87813385570774
2.73,-0.3751930776724084,81.72493731708295
2.74,-0.3880389644900019,81.75588611276473
2.75,-0.39549357238414945,91.3376332558427
2.76,-0.39735722435768633,102.47610482171405
2.77,-0.39595948537753367,113.09618405991563
2.78,-0.39655851636902767,120.48211414937158
2.79,-0.4006851743104308,121.33630091018861
2.8,-0.4014838822990895,121.4894974488134
2.81,-0.3986884043387841,120.57341309663282
2.82,-0.39842216834256455,119.44532949403207
2.83,-0.3962922803728081,117.46151169083019
2.84,-0.3956932493813141,114.775156225652
2.85,-0.39795625534918033,111.87680151005364
2.86,-0.3964253983709179,105.34505818141473
2.87,-0.39429551040116145,102.01961008540785
2.88,-0.40041893831421127,99.5468013104339
2.89,-0.40880537219512725,97.25813786976654
2.9,-0.4124661171431461,95.64106329539372
2.91,-0.41166740915448746,93.83984338671434
2.92,-0.410735583167719,91.94887197055779
2.93,-0.41106837816299346,90.3008486005032
2.94,-0.4074076332149746,88.34643215319902
2.95,-0.39489454139265545,86.63805863156496
2.96,-0.3840454245467086,85.20358195171461
2.97,-0.3423794911383482,83.49520843008055
2.98,-0.30896687361279396,82.27427844043447
2.99,-0.33279499527444417,81.84718506002596
3.0,-0.3447090561052693,81.81623626434418
3.01,-0.3646767558217359,82.15203069749145
3.02,-0.41885578105241544,82.30522723611625
3.03,-0.43516273582086323,82.15203069749145
3.04,-0.4254451219588494,82.21238084907093
3.05,-0.4305701648860759,82.64102166926352
3.06,-0.43456370482936924,83.98265196206853
3.07,-0.43043704688796613,85.44807743760065
3.08,-0.42877307191159386,87.36999764943897
3.09,-0.47955758819047406,87.40094644512074
3.1,-0.4998580829022152,87.4628440364843
3.11,-0.19335389225445207,87.4628440364843
3.12,0.7029961480177359,90.23895100913964
3.13,1.708236710743722,89.41571304400439
3.14,1.418438828858736,88.77507297339162
3.15,0.1240659742383128,87.79709102984748
3.16,-0.5673489079438725,87.12704960333703
3.17,-0.5650193429769513,86.33321299409945
3.18,-0.46358342841730077,85.14323180013515
3.19,-0.418522986057141,84.34939519089758
3.2,-0.39323056641628323,83.55555858166002
3.21,-0.37732296564216483,82.5481752822182
3.22,-0.3640777248302419,81.90753521160542
3.23,-0.35143151500981307,80.99299829920894
3.24,-0.33765380220545105,80.53495612311865
3.25,-0.31768610248898443,80.1682128942896
3.26,-0.29725248977913354,79.83241846114231
3.27,-0.27741790806077665,79.37437628505202
3.28,-0.2507277494397662,79.1004794432683
3.29,-0.21192385299076605,78.64243726717801
3.3,-0.15841041775063544,78.64243726717801
3.31,-0.09231733168913081,78.27569403834896
3.32,-0.014177066798691322,77.97084840088347
3.33,0.06775706103787683,77.42150727753193
3.34,0.14296872996990123,77.11666164006644
3.35,0.2052013940862223,76.23152608356763
3.36,0.23069349072424472,75.89573165042036
3.37,0.17578231650396142,75.77348390747734
3.38,0.048854305306288405,76.32282503082887
3.39,-0.0947800146541617,77.81919930204276
3.4,-0.21085890900588783,83.34201189145577
3.41,-0.2868692859265709,83.40390948281932
3.42,-0.32946704532169974,93.65724549219185
3.43,-0.34970098103438596,105.071161339631
3.44,-0.35615720394271017,115.66029178215081
3.45,-0.35735526592569816,122.00788977648315
3.46,-0.3530954899861853,124.23620306557106
3.47,-0.35216366399941684,123.74721209379899
3.48,-0.35795429691719216,123.07562322750444
3.49,-0.3605500978803328,122.31273541394866
3.5,-0.3599510668888388,121.58079639607465
3.51,-0.35921891789923505,120.54246430095104
3.52,-0.35569129094932594,119.44532949403207
3.53,-0.35382763897578906,117.79730612397746
3.54,-0.3524964589946913,115.17284825016283
3.55,-0.35036657102493485,112.2419972990986
3.56,-0.3477707700617942,106.1079459949705
3.57,-0.34564088209203775,103.11829233211091
3.58,-0.3471051800712453,100.85903024734122
3.59,-0.3500337760296604,98.69261454961688
3.6,-0.34850291905139796,96.89139464093749
3.61,-0.3488357140466724,95.24491871066698
3.62,-0.3524964589946913,93.56594654493061
3.63,-0.3463730310816415,91.58212874172874
3.64,-0.3457740000901475,89.9944555232536
3.65,-0.3331277902697186,87.85898862121104
3.66,-0.2630411642649207,86.02836735663396
3.67,-0.2349532666637576,84.6232920326813
3.68,-0.26856556118647645,83.67780632460304
3.69,-0.292194005850962,82.64102166926352
3.7,-0.3454412050948731,82.27427844043447
3.71,-0.39136691444274635,82.2433296447527
3.72,-0.393363684414393,82.21238084907093
3.73,-0.39735722435768633,82.21238084907093
3.74,-0.408339459201743,82.27427844043447
3.75,-0.4131982661327499,83.00621745830848
3.76,-0.4130651481346401,83.49520843008055
3.77,-0.41459600511290257,85.0813342087716
3.78,-0.44920668462144475,86.66900742724673
3.79,-0.5003239958955994,86.6999562229285
3.8,-0.32121372943889354,86.66900742724673
3.81,0.424513295972081,86.57770847998549
3.82,1.5510243549760745,90.26989980482142
3.83,1.7124964866832348,89.96505416735592
3.84,0.5093094607680094,88.6528252304486
3.85,-0.4698399743284603,88.25513320593777
3.86,-0.5931072405781145,87.03420321629169
3.87,-0.4856810161035238,86.24191404683822
3.88,-0.4209856690221719,85.5393763848619
3.89,-0.3846444555382026,84.68518962404487
3.9,-0.36441051982551637,83.92230181048907
3.91,-0.35449322896633795,83.03716625399026
3.92,-0.3404492801657564,82.21238084907093
3.93,-0.3272705983528884,81.3287927323562
3.94,-0.31435815253624,80.99299829920894
3.95,-0.29432389382071844,80.56590491880041
3.96,-0.26989674116757423,80.23011048565314
3.97,-0.24413840853333224,79.83241846114231
3.98,-0.21132482199927205,79.13142823895008
3.99,-0.16313610668353254,78.61148847149623
4.0,-0.1008368835681566,78.2153438867695
4.01,-0.028354133597382643,77.87954945362222
4.02,0.05038516228455085,77.11666164006644
4.03,0.13138746413435057,76.59826931239668
4.04,0.20260559312308163,76.35377382651065
4.05,0.23621788764580048,75.86478285473858
4.06,0.19881173017695294,76.29342367493118
4.07,0.08273283582522682,77.05631148848697
4.08,-0.06589340906433995,82.12108190180969
4.09,-0.19242206626768363,82.18297949317324
4.1,-0.27815005705038043,82.30522723611625
4.11,-0.32946704532169974,82.15203069749145
4.12,-0.3582870919124666,82.2433296447527
4.13,-0.3727969537064324,82.15203069749145
4.14,-0.3779885556327137,91.27728310426325
4.15,-0.38071747459396416,102.11090903266908
4.16,-0.37945285361192127,112.09034820025789
4.17,-0.37539275466957306,118.74279183205574
4.18,-0.37046738873951124,119.77957648739525
4.19,-0.37066706573667596,119.68827754013401
4.2,-0.3727969537064324,118.68089424069218
4.21,-0.3695355627527428,117.39961409946665
4.22,-0.3672725567848766,115.59994163057134
4.23,-0.36926932675652324,113.06678270401794
4.24,-0.3739950156894204,110.32007708726029
4.25,-0.3775226426393295,107.05497914283286
4.26,-0.37732296564216483,103.66763345546244
4.27,-0.3769236116478355,100.7367825043982
4.28,-0.37718984764405505,98.84581108824167
4.29,-0.3769236116478355,97.13589012682353
4.3,-0.3781216736308235,95.70141344697318
4.31,-0.3762580216572866,93.8707921823961
4.32,-0.3618147188623757,92.37596535096631
4.33,-0.3559575269455455,90.7573433368094
4.34,-0.33598982722907883,88.77507297339162
4.35,-0.2607781582970545,87.03420321629169
4.36,-0.2325571426977816,85.60127397622544
4.37,-0.27022953616284867,84.22714744795456
4.38,-0.3027103277016344,83.03716625399026
4.39,-0.3596182718935644,82.61007287358176
4.4,-0.40041893831421127,82.73232061652477
4.41,-0.40055205631232105,82.61007287358176
4.42,-0.40527774524521815,82.67042302516121
4.43,-0.41699212907887856,82.57912407789998
4.44,-0.42344835198720276,82.67042302516121
4.45,-0.4214515820155561,82.61007287358176
4.46,-0.417923955065647,83.55555858166002
4.47,-0.441286163733913,84.6232920326813
4.48,-0.5007899088889836,84.71613841972663
4.49,-0.37905349961759194,84.68518962404487
4.5,0.2665687912148298,90.23895100913964
4.51,1.394477589198976,90.33024995640088
4.52,1.8150639042268186,89.5673621428451
4.53,0.7505858323419814,89.11086740653889
4.54,-0.37432781068469484,88.25513320593777
4.55,-0.5992306684911642,88.25513320593777
4.56,-0.4945333629778241,87.52319418806375
4.57,-0.4214515820155561,86.6999562229285
4.58,-0.38790584649189214,85.47902623328243
4.59,-0.36441051982551637,85.50842758918012
4.6,-0.3494347450381664,85.14323180013515
4.61,-0.3315969332914562,83.98265196206853
4.62,-0.31415847553907533,83.09751640556973
4.63,-0.2957216328008711,82.57912407789998
4.64,-0.2729584551240991,81.87813385570774
4.65,-0.24946312845772337,81.38914288393568
4.66,-0.2235716778253716,81.02239965510663
4.67,-0.1902921782979272,80.13726409860782
4.68,-0.14403367395477945,79.83241846114231
4.69,-0.08486272379498326,79.34497492915433
4.7,-0.014975774787349988,79.1004794432683
4.71,0.061633633124827066,78.30664283403074
4.72,0.13810992303889433,77.78825050636098
4.73,0.20646601506826517,77.48340486889549
4.74,0.24946312845772337,76.68956825965792
4.75,0.22723242277339048,76.29342367493118
4.76,0.12173640927139168,75.83538149884089
4.77,-0.02289629567488176,76.5673205167149
4.78,-0.15335193382246387,76.7205170553397
4.79,-0.24660109149836315,76.62767066829437
4.8,-0.30078011672904265,76.68956825965792
4.81,-0.32534038738029664,80.13726409860782
4.82,-0.3355239142356946,88.56152628318736
4.83,-0.3417804601468542,99.2419556729684
4.84,-0.3454412050948731,110.07558160137425
4.85,-0.3471051800712453,122.00788977648315
4.86,-0.34670582607691597,122.67947864277771
4.87,-0.34331131712511664,121.45854865313163
4.88,-0.34104831115725043,119.81052528307703
4.89,-0.34104831115725043,118.56019393753326
4.9,-0.3396505721770977,118.62054408911273
4.91,-0.33752068420734127,118.22439950438599
4.92,-0.3331277902697186,117.12571725768292
4.93,-0.33066510730468773,115.50709524352601
4.94,-0.3303323123094133,112.79133842245014
4.95,-0.3315969332914562,109.984282654113
4.96,-0.3371878892120668,103.66763345546244
4.97,-0.3430450811288971,100.67643235281875
4.98,-0.3460402360863671,98.84581108824167
4.99,-0.3471051800712453,97.25813786976654
5.0,-0.3460402360863671,95.61011449971194
5.01,-0.33871874619032927,93.81044203081665
5.02,-0.32407576639825375,92.40536670686399
5.03,-0.32287770441526575,90.36119875208266
5.04,-0.291594974859468,88.74412417770984
5.05,-0.21438653595579693,86.6999562229285
5.06,-0.20080850014859963,85.17263315603284
5.07,-0.2378818626221727,83.98265196206853
5.08,-0.2770851130655022,82.701371820843
5.09,-0.3385856281922195,82.18297949317324
5.1,-0.36973523974990746,82.15203069749145
5.11,-0.3665404077952728,82.21238084907093
5.12,-0.3717320097215542,82.33462859201394
5.13,-0.38251456756844615,83.06811504967204
5.14,-0.38770616949472747,84.34939519089758
5.15,-0.3905016474550328,85.84422202232739
5.16,-0.3953604543860397,87.49224539238199
5.17,-0.43150199087284435,87.40094644512074
5.18,-0.48428327712337116,87.36999764943897
5.19,-0.3041080666817871,90.33024995640088
5.2,0.44341605170366943,90.02540431893539
5.21,1.5594773478560455,89.44511439990208
5.22,1.696189531914787,88.77507297339162
5.23,0.4914716490212992,87.85898862121104
5.24,-0.46145354044754433,87.03420321629169
5.25,-0.5659511689637198,85.93552096958862
5.26,-0.45027162860632297,85.11228300445337
5.27,-0.39382959740777723,84.40974534247705
5.28,-0.3709333017328955,83.49520843008055
5.29,-0.35276269499091084,82.67042302516121
5.3,-0.33831939219599994,82.30522723611625
5.31,-0.32593941837179063,81.38914288393568
5.32,-0.31435815253624,80.99299829920894
5.33,-0.29938237774889,80.50400732743687
5.34,-0.28354133597382647,80.13726409860782
5.35,-0.26217589727720714,79.46722267209735
5.36,-0.2308931677214094,79.16082959484777
5.37,-0.19421915924216562,78.70433485854157
5.38,-0.149092157882951,78.36854042539429
5.39,-0.09138550570236237,77.910498249304
5.4,-0.019102432728753095,77.48340486889549
5.41,0.05830568317208262,76.62767066829437
5.42,0.13318455710883256,76.29342367493118
5.43,0.19881173017695294,75.86478285473858
5.44,0.23455391266942827,75.49958706569362
5.45,0.20080850014859963,75.43768947433006
5.46,0.08745852475812393,76.29342367493118
5.47,-0.055843000207051734,80.04596515134658
5.48,-0.18037488743874874,88.98861966359587
5.49,-0.2684324431883667,89.07991861085712
5.5,-0.3186179284757529,99.73094664474047
5.51,-0.34497529210148886,110.07558160137425
5.52,-0.36041697988222304,118.07120296576119
5.53,-0.36807126477353524,118.22439950438599
5.54,-0.3654754638103946,121.42759985744985
5.55,-0.36208095485859526,121.76339429059712
5.56,-0.3689365317612488,120.6043618923146
5.57,-0.3660744948018886,119.81052528307703
5.58,-0.35688935293231394,118.74279183205574
5.59,-0.3540273159729537,118.13310055712475
5.6,-0.3535614029795695,117.43056289514843
5.61,-0.35143151500981307,116.33188064844536
5.62,-0.3501668940277702,114.34806284524349
5.63,-0.3448421741033791,111.54100707690637
5.64,-0.33871874619032927,108.85465161172817
5.65,-0.3417804601468542,102.44670346581636
5.66,-0.3417804601468542,99.66904905337692
5.67,-0.3402496031685917,97.16683892250529
5.68,-0.34391034811661064,95.18302111930343
5.69,-0.3423794911383482,93.83984338671434
5.7,-0.32241179142188153,92.40536670686399
5.71,-0.3010463527252622,90.69699318522993
5.72,-0.3009132347271524,89.17121755811836
5.73,-0.2593804193169018,87.03420321629169
5.74,-0.19881173017695294,85.60127397622544
5.75,-0.1991445251722274,83.86040421912551
5.76,-0.2294954287412567,82.73232061652477
5.77,-0.29192776985474245,82.5481752822182
5.78,-0.35569129094932594,81.7852874686624
5.79,-0.36926932675652324,81.29784393667443
5.8,-0.36973523974990746,81.7852874686624
5.81,-0.37612490365917683,81.7852874686624
5.82,-0.38025156160057993,81.7852874686624
5.83,-0.3822483315722266,82.97681610241081
5.84,-0.3846444555382026,84.7764885713061
5.85,-0.39030197045786813,86.60710983588318
5.86,-0.4458787346687003,86.63805863156496
5.87,-0.4512034545930914,86.63805863156496
5.88,-0.09491313265227148,86.6999562229285
5.89,0.850823684918644,86.63805863156496
5.9,1.7544286560878148,89.8428064244129
5.91,1.2821925577933786,89.47606319558385
5.92,0.01890275573158843,89.01802101949356
5.93,-0.5399931593323132,88.25513320593777
5.94,-0.4933353009948361,87.9193387727905
5.95,-0.38318015755899504,86.97385306471223
5.96,-0.3463730310816415,86.27131540273591
5.97,-0.3250075923850222,85.44807743760065
5.98,-0.3097655816014526,84.68518962404487
5.99,-0.2973856077772433,83.83100286322784
6.0,-0.2794146780324233,83.15941399693328
6.01,-0.2624421332734267,82.21238084907093
6.02,-0.24340625954372846,81.44949303551513
6.03,-0.22017716887357228,81.02239965510663
6.04,-0.19681496020530628,80.23011048565314
6.05,-0.16659717463438675,79.80301710524463
6.06,-0.1210042602817879,79.4053250807338
6.07,-0.06422943408796773,79.00918049600706
6.08,0.0031948319546346643,78.64243726717801
6.09,0.08160133284129371,78.61148847149623
6.1,0.16020751072511744,78.73373621443925
6.11,0.2302275777308605,78.64243726717801
6.12,0.28440660296154,78.27569403834896
6.13,0.29006411788120556,77.51280622479317
6.14,0.21179073499265627,76.96346510144164
6.15,0.07281554496604839,76.74991841123739
6.16,-0.06822297403126105,82.18297949317324
6.17,-0.17911026645670586,82.15203069749145
6.18,-0.24793227147946093,82.18297949317324
6.19,-0.2794146780324233,82.21238084907093
6.2,-0.2940576578244989,82.27427844043447
6.21,-0.3056389236600495,91.3376332558427
6.22,-0.31282729555797756,102.59835256465706
6.23,-0.3104977305910564,111.96810045731488
6.24,-0.3053061286647751,118.86503957499876
6.25,-0.30550580566193974,118.89598837068053
6.26,-0.30377527168651264,118.31569845164722
6.27,-0.2973856077772433,117.06381966631938
6.28,-0.2911290618660838,117.0034695147399
6.29,-0.29019723587931534,116.97252071905812
6.3,-0.28840014290483335,117.09476846200114
6.31,-0.28533842894830846,115.87383847235506
6.32,-0.283807571970046,113.55422623600592
6.33,-0.28181080199839936,111.11391369649785
6.34,-0.2800137090239173,107.94011469933167
6.35,-0.27981403202675265,104.7663157021655
6.36,-0.2816776840002896,101.62191806089702
6.37,-0.27022953616284867,98.75296470119635
6.38,-0.2438056135380578,96.8619932850398
6.39,-0.23621788764580048,95.18302111930343
6.4,-0.20247247512497185,94.0239887210209
6.41,-0.1365790660606319,92.28466640370506
6.42,-0.12053834728840368,91.15503536132023
6.43,-0.14343464296328545,89.07991861085712
6.44,-0.2040033321032343,85.60127397622544
6.45,-0.2822767149917836,83.8913530148073
6.46,-0.3035090356902931,82.61007287358176
6.47,-0.2985836697602313,82.2433296447527
6.48,-0.30790192962791574,81.7852874686624
6.49,-0.3160221275126122,82.21238084907093
6.5,-0.3196828724606311,82.27427844043447
6.51,-0.32121372943889354,82.2433296447527
6.52,-0.3184182514785882,82.64102166926352
6.53,-0.35262957699280106,84.22714744795456
6.54,-0.3962922803728081,85.8148206664297
6.55,-0.1878294953328963,87.82803982552926
6.56,0.5853198376886924,87.8899374168928
6.57,1.6617119704043548,87.76768967394979
6.58,1.7007155438505195,87.85898862121104
6.59,0.4914716490212992,87.82803982552926
6.6,-0.3857093995230808,90.72794198091171
6.61,-0.4571272055089765,90.33024995640088
6.62,-0.3442431431118851,89.87375522009468
6.63,-0.2917280928575778,89.14026876243658
6.64,-0.26796653019498246,88.31703079730133
6.65,-0.2485978614700098,87.40094644512074
6.66,-0.2337552046807696,86.30226419841767
6.67,-0.21578427493594962,85.47902623328243
6.68,-0.19821269918545895,84.74553977562432
6.69,-0.18110703642835252,83.95325060617085
6.7,-0.1657319076466732,83.52615722576233
6.71,-0.1443664689500539,82.64102166926352
6.72,-0.11168600041410347,81.7852874686624
6.73,-0.0721499549754995,81.29784393667443
6.74,-0.021232320698509537,80.56590491880041
6.75,0.03953604543860397,80.13726409860782
6.76,0.10815837346419437,79.92371740840356
6.77,0.18876132131966475,79.00918049600706
6.78,0.2694973871732449,78.76468501012103
6.79,0.3357235912328593,77.910498249304
6.8,0.3658748178047239,77.54375502047495
6.81,0.32167964243227776,77.48340486889549
6.82,0.20067538215048986,77.05631148848697
6.83,0.05431214322878929,77.51280622479317
6.84,-0.0709518929925115,78.27569403834896
6.85,-0.15581461678749478,83.76910527186428
6.86,-0.20353741910985007,83.92230181048907
6.87,-0.23056037272613494,83.86040421912551
6.88,-0.2414094895720818,93.35239985472636
6.89,-0.24400529053522246,103.69703481136013
6.9,-0.24487055752293604,113.76777292621018
6.91,-0.2446043215267165,119.99467061738359
6.92,-0.24234131555885025,120.63531068799637
6.93,-0.23974551459570959,120.17726851190608
6.94,-0.2384808936136667,119.41438069835029
6.95,-0.23834777561555692,119.32308175108905
6.96,-0.2331561736892756,118.28474965596546
6.97,-0.22869672075259803,116.30093185276358
6.98,-0.22809768976110403,113.86061931325551
6.99,-0.22570156579512804,111.08296490081607
7.0,-0.2206430818669565,107.94011469933167
7.01,-0.21911222488869406,105.1005626955287
7.02,-0.22157490785372494,102.78249789896363
7.03,-0.22397103181970093,100.70738114850052
7.04,-0.22689962777811604,98.78391349687811
7.05,-0.22916263374598225,97.16683892250529
7.06,-0.22902951574787248,95.97685772854099
7.07,-0.22962854673936647,94.3288343584864
7.08,-0.22263985183860316,92.28466640370506
7.09,-0.19748055019585517,90.85018972385473
7.1,-0.18995938330265275,88.74412417770984
7.11,-0.1698585655880763,88.59092763908505
7.12,-0.09930602658989414,87.52319418806375
7.13,-0.0715509239840055,85.93552096958862
7.14,-0.09844075960218059,84.71613841972663
7.15,-0.14569764893115167,84.25809624363634
7.16,-0.21911222488869406,83.92230181048907
7.17,-0.25738364934525515,84.22714744795456
7.18,-0.2566515003556514,84.34939519089758
7.19,-0.26397299025168913,84.28904503931813
7.2,-0.2724925421307149,84.68518962404487
7.21,-0.27448931210236155,85.87517081800917
7.22,-0.274822107097636,87.36999764943897
7.23,-0.27448931210236155,89.04896981517534
7.24,-0.30657074964681796,89.07991861085712
7.25,-0.36221407285670504,91.52023115036519
7.26,-0.1867645513480181,91.64247889330821
7.27,0.5561669961026511,90.66604438954816
7.28,1.6870043900452125,90.36119875208266
7.29,1.8876797721957024,89.47606319558385
7.3,0.7037282970073396,88.28608200161955
7.31,-0.29598786879709066,87.40094644512074
7.32,-0.4237145879834223,86.63805863156496
7.33,-0.3144912705343498,85.90611961369095
7.34,-0.2571174133490356,85.14323180013515
7.35,-0.23115940371762894,84.25809624363634
7.36,-0.21438653595579693,83.5865073773418
7.37,-0.20067538215048986,82.76172197242245
7.38,-0.18250477540850518,82.67042302516121
7.39,-0.1657319076466732,82.18297949317324
7.4,-0.14922527588106077,81.42009167961744
7.41,-0.13138746413435057,80.96204950352715
7.42,-0.11108696942260947,80.56590491880041
7.43,-0.0846630467978186,80.19916168997136
7.44,-0.05051828028266063,79.83241846114231
7.45,-0.005191601926281329,79.37437628505202
7.46,0.05371311223729529,79.03858185190475
7.47,0.12539715421941056,78.70433485854157
7.48,0.20353741910985007,77.94144704498578
7.49,0.2828757459832776,77.42150727753193
7.5,0.3535614029795695,76.74991841123739
7.51,0.392764653422899,76.23152608356763
7.52,0.36680664379149236,76.32282503082887
7.53,0.2612440712904387,76.65861946397614
7.54,0.11767631032904347,78.67338606285979
7.55,-0.012379973824209323,78.61148847149623
7.56,-0.10556257250105369,78.79563380580281
7.57,-0.15794450475725122,85.38772728602119
7.58,-0.1806411234349683,95.42751660518947
7.59,-0.1908912092894212,106.4143390722201
7.6,-0.19634904721192206,116.08738516255933
7.61,-0.19774678619207472,122.13013751942617
7.62,-0.19761366819396495,121.45854865313163
7.63,-0.1931542152572874,121.39819850155216
7.64,-0.18629863835463387,121.06240406840489
7.65,-0.18263789340661496,121.03145527272311
7.66,-0.18250477540850518,119.84147407875881
7.67,-0.18190574441701118,118.92538972657822
7.68,-0.17871091246237653,116.72802523317209
7.69,-0.17485049051719298,116.60577749022907
7.7,-0.17331963353893054,114.31711404956171
7.71,-0.17391866453042454,111.0520161051343
7.72,-0.17318651554082076,107.94011469933167
7.73,-0.17285372054554632,105.16246028689224
7.74,-0.17698037848694942,102.87379684622488
7.75,-0.1829706884018894,101.10352573322726
7.76,-0.18889443931777453,99.15065672570717
7.77,-0.19515098522893407,97.4716845599708
7.78,-0.20200656213158763,96.03720788012046
7.79,-0.20646601506826517,94.20658661554339
7.8,-0.2040033321032343,92.77210993569304
7.81,-0.2022062391287523,91.09313776995667
7.82,-0.20387021410512451,89.14026876243658
7.83,-0.19927764317033717,87.4628440364843
7.84,-0.18995938330265275,85.93552096958862
7.85,-0.17564919850585164,84.6232920326813
7.86,-0.12173640927139168,83.92230181048907
7.87,-0.0971761386201377,83.8913530148073
7.88,-0.12985660715608813,83.95325060617085
7.89,-0.1414378729916388,83.86040421912551
7.9,-0.17564919850585164,84.25809624363634
7.91,-0.23269026069589138,85.90611961369095
7.92,-0.24340625954372846,87.4628440364843
7.93,-0.2319581117062876,87.34059629354128
7.94,-0.23388832267887938,87.4628440364843
7.95,-0.23774874462406292,87.40094644512074
7.96,-0.23635100564391026,90.66604438954816
7.97,-0.24167572556830136,90.66604438954816
7.98,-0.3047070976732811,90.87959107975242
7.99,-0.2926599188443462,90.33024995640088
8.0,0.12679489319956325,89.53796078694741
8.01,1.1414868337913435,88.62187643476682
8.02,2.008351237482216,87.8899374168928
8.03,1.4036627310685508,86.97385306471223
8.04,0.0900543257212646,87.00480186039401
8.05,-0.4301708108917466,85.93552096958862
8.06,-0.37659081665256106,85.11228300445337
8.07,-0.28547154694641824,83.92230181048907
8.08,-0.2462682965030887,82.97681610241081
8.09,-0.2229060878348227,82.61007287358176
8.1,-0.21119170400116227,82.67042302516121
8.11,-0.19867861217884317,82.12108190180969
8.12,-0.18523369436975562,81.29784393667443
8.13,-0.17138942256633877,80.53495612311865
8.14,-0.15514902679694587,80.1682128942896
8.15,-0.13624627106535744,79.77206830956285
8.16,-0.11228503140559747,79.83241846114231
8.17,-0.0853286367883675,79.37437628505202
8.18,-0.05404590723256974,79.00918049600706
8.19,-0.009451377865794214,78.64243726717801
8.2,0.05511085121744796,78.70433485854157
8.21,0.13424950109371078,77.84860065794045
8.22,0.21238976598415027,77.57470381615673
8.23,0.2852053109501987,77.05631148848697
8.24,0.34497529210148886,76.29342367493118
8.25,0.36148192386710126,75.83538149884089
8.26,0.29598786879709066,75.5305358613754
8.27,0.16253707569203854,75.3773393227506
8.28,0.019967699716466652,75.43768947433006
8.29,-0.09291636268062482,77.910498249304
8.3,-0.16526599465328898,85.50842758918012
8.31,-0.20373709610701474,96.22135321442703
8.32,-0.22204082084710916,108.24496033679718
8.33,-0.2294954287412567,117.30831515220541
8.34,-0.23069349072424472,122.13013751942617
8.35,-0.22783145376488448,122.58817969551646
8.36,-0.22443694481308515,121.91659082922192
8.37,-0.22430382681497538,121.09180542430258
8.38,-0.22523565280174382,120.69566083957584
8.39,-0.22463662181024982,119.81052528307703
8.4,-0.22263985183860316,119.87242287444057
8.41,-0.2200440508754625,119.29213295540727
8.42,-0.2153183619425654,118.22439950438599
8.43,-0.21365438696619315,116.66767508159263
8.44,-0.2145196539539067,114.34806284524349
8.45,-0.21731513191421206,111.44970812964512
8.46,-0.21804728090381584,108.61015612584214
8.47,-0.21791416290570606,105.52920351572129
8.48,-0.21838007589909028,103.17864248369037
8.49,-0.22097587686223094,100.67643235281875
8.5,-0.22337200082820693,98.84581108824167
8.51,-0.2253687707998536,97.53358215133434
8.52,-0.22643371478473182,95.97685772854099
8.53,-0.22643371478473182,94.23753541122515
8.54,-0.22490285780646938,91.24633430858147
8.55,-0.2253687707998536,88.68222658634629
8.56,-0.2253687707998536,87.03420321629169
8.57,-0.2171154549170474,85.14323180013515
8.58,-0.2097939650210096,83.95325060617085
8.59,-0.18862820332155497,83.55555858166002
8.6,-0.13305143911072279,82.97681610241081
8.61,-0.12845886817593546,83.03716625399026
8.62,-0.1634023426797521,83.06811504967204
8.63,-0.16420105066841076,83.00621745830848
8.64,-0.19881173017695294,83.46425963439879
8.65,-0.24533647051632027,83.86040421912551
8.66,-0.24793227147946093,85.50842758918012
8.67,-0.24094357657869758,87.00480186039401
8.68,-0.24167572556830136,87.00480186039401
8.69,-0.24274066955317958,91.09313776995667
8.7,-0.24353937754183824,90.78829213249118
8.71,-0.2572505313471454,90.26989980482142
8.72,-0.32713748035477863,89.53796078694741
8.73,-0.2737571631127578,89.11086740653889
8.74,0.25145989842937,89.07991861085712
8.75,1.3341085770561918,88.22573185004009
8.76,2.0205980933083154,87.4628440364843
8.77,1.1851495371713505,86.66900742724673
8.78,-0.06695835304921817,85.90611961369095
8.79,-0.44268390271406566,85.0813342087716
8.8,-0.3624137498538697,83.8913530148073
8.81,-0.2833416589766618,83.00621745830848
8.82,-0.2485978614700098,82.2433296447527
8.83,-0.22337200082820693,81.81623626434418
8.84,-0.21298879697564427,80.93110070784537
8.85,-0.1997435561637214,80.53495612311865
8.86,-0.1847677813763714,79.86336725682409
8.87,-0.17485049051719298,79.4053250807338
8.88,-0.16054030572039188,79.06953064758653
8.89,-0.13990701601337632,78.70433485854157
8.9,-0.1174766333318788,78.30664283403074
8.91,-0.08759164275623371,78.18439509108772
8.92,-0.04758968432424552,78.00179719656524
8.93,0.0055243969215557735,76.99441389712342
8.94,0.07388048895092661,77.11666164006644
8.95,0.15335193382246387,76.65861946397614
8.96,0.23455391266942827,75.83538149884089
8.97,0.3063710726496533,75.3773393227506
8.98,0.35748838392380794,75.01059609392155
8.99,0.3605500978803328,74.61445150919481
9.0,0.283807571970046,74.64540030487659
9.01,0.14636323892170056,75.01059609392155
9.02,0.0027289189612504424,77.42150727753193
9.03,-0.10862428645757859,77.57470381615673
9.04,-0.17671414249072986,77.48340486889549
9.05,-0.2116576169945465,77.45245607321371
9.06,-0.2288963977497627,85.05193285287392
9.07,-0.23575197465241626,95.45846540087123
9.08,-0.23621788764580048,106.5659881710608
9.09,-0.23801498062028248,115.35544614468532
9.1,-0.24094357657869758,115.53804403920779
9.11,-0.24294034655034424,115.44674509194655
9.12,-0.24034454558720358,115.56899283488957
9.13,-0.23575197465241626,115.47769388762832
9.14,-0.23541917965714182,115.47769388762832
9.15,-0.2372828316306787,115.35544614468532
9.16,-0.23834777561555692,115.44674509194655
9.17,-0.2408104585805878,110.41137603452152
9.18,-0.24353937754183824,107.20662824167357
9.19,-0.24413840853333224,104.36862367765467
9.2,-0.2446043215267165,101.95771249404429
9.21,-0.24427152653144202,99.5468013104339
9.22,-0.2438056135380578,98.02102568332232
9.23,-0.2446043215267165,95.91496013717745
9.24,-0.2474663584860767,94.72497894321313
9.25,-0.25179269342464444,93.10790436884032
9.26,-0.2534566684010167,91.58212874172874
9.27,-0.250860867437876,89.5673621428451
9.28,-0.2481319484766256,87.43189524080252
9.29,-0.24473743952482627,85.87517081800917
9.3,-0.23408799967604405,84.31844639521582
9.31,-0.22277296983671294,83.00621745830848
9.32,-0.2075309590531434,82.701371820843
9.33,-0.15581461678749478,82.21238084907093
9.34,-0.1382430410370041,82.21238084907093
9.35,-0.17378554653231476,82.2433296447527
9.36,-0.17851123546521186,82.30522723611625
9.37,-0.2044692450966185,82.18297949317324
9.38,-0.26031224530367025,82.701371820843
9.39,-0.27741790806077665,83.46425963439879
9.4,-0.26976362316946445,84.31844639521582
9.41,-0.2696305051713547,84.25809624363634
9.42,-0.27282533712598933,84.34939519089758
9.43,-0.27495522509574577,89.41571304400439
9.44,-0.28107865300879553,89.44511439990208
9.45,-0.3408486341600857,89.14026876243658
9.46,-0.33811971519883527,88.74412417770984
9.47,0.04792247931951996,87.79709102984748
9.48,1.0331953423290394,87.09610080765525
9.49,1.9632242361230012,86.24191404683822
9.5,1.4601047622670964,85.5393763848619
9.51,0.13731121505023566,84.65424082836309
9.52,-0.4388234807688821,83.8913530148073
9.53,-0.39382959740777723,83.83100286322784
9.54,-0.2951226018093771,83.15941399693328
9.55,-0.2571174133490356,82.21238084907093
9.56,-0.23129252171573872,81.81623626434418
9.57,-0.2159173929340594,81.02239965510663
9.58,-0.2028052701202463,80.13726409860782
9.59,-0.18982626530454297,79.74111951388107
9.6,-0.17791220447371786,79.86336725682409
9.61,-0.1644672866646303,79.13142823895008
9.62,-0.14569764893115167,79.1004794432683
9.63,-0.11914060830825102,78.64243726717801
9.64,-0.0859276677798615,78.27569403834896
9.65,-0.04758968432424552,78.27569403834896
9.66,-0.00459257093478733,77.51280622479317
9.67,0.05384623023540507,77.05631148848697
9.68,0.13105466913907612,76.65861946397614
9.69,0.2145196539539067,76.23152608356763
9.7,0.2908628258698642,75.89573165042036
9.71,0.34930162704005663,75.01059609392155
9.72,0.368204382771645,74.67480166077428
9.73,0.30657074964681796,74.12546053742274
9.74,0.1717887765606681,73.8825124913208
9.75,0.02748886660966909,73.82061489995725
9.76,-0.08313218981955615,74.73669925213783
9.77,-0.158077622755361,80.07691394702834
9.78,-0.20493515809000273,80.25951184155083
9.79,-0.23042725472802517,100.889979043023
9.8,-0.24447120352860668,111.81490391869009
9.81,-0.24946312845772337,118.13310055712475
9.82,-0.2458023835097045,120.17726851190608
9.83,-0.24340625954372846,119.38343190266852
9.84,-0.2450702345201007,118.65149288479451
9.85,-0.24487055752293604,117.79730612397746
9.86,-0.23941271960043514,117.46151169083019
9.87,-0.23209122970439738,116.66767508159263
9.88,-0.23056037272613494,115.50709524352601
9.89,-0.2319581117062876,113.76777292621018
9.9,-0.22869672075259803,111.93715166163311
9.91,-0.22383791382159116,111.84585271437186
9.92,-0.22583468379323782,109.5571892737045
9.93,-0.2319581117062876,106.65728711832205
9.94,-0.2319581117062876,103.66763345546244
9.95,-0.23115940371762894,101.10352573322726
9.96,-0.23648412364202004,99.15065672570717
9.97,-0.23881368860894114,96.80009569367624
9.98,-0.23834777561555692,95.18302111930343
9.99,-0.2384808936136667,93.50404895356705
