time_s,ECG1,ECG2,NIBP
0.0,-0.03469435485300596,-0.09806392225998344,86.20083896576055
0.01,-0.05558100683733183,-0.04768814771883945,86.49323449485453
0.02,-0.027140140602387505,-0.08764419981043355,86.72823673707065
0.03,-0.039321936430371573,-0.02974307016683686,86.88568048350587
0.04,-0.02831579646258309,-0.08590757940217524,87.07647438312686
0.05,-0.05673164874305517,-0.03842617220812844,87.36809432726304
0.06,-0.04282389005648609,-0.08938082021869186,87.51390429933112
0.07,-0.06311020713347804,-0.045372653841161695,87.34560236348658
0.08,-0.025989498696664164,-0.07722447736088366,86.87404670913872
0.09,-0.07006408647676259,-0.04653040078000058,86.18998077635123
0.1,-0.024838856790940823,-0.08127659164681972,85.39345502468143
0.11,0.016934447177710914,-0.01990222118670641,84.64191320056456
0.12,0.03316850363019892,-0.06333151409481713,84.00205561037217
0.13,0.03491948044325618,-0.012376866084253707,83.41881572209984
0.14,0.10916089731688393,0.0020949706512322533,82.89141795078974
0.15,0.07494180759885066,0.04378764315108467,82.31903625192675
0.16,0.04477497850532132,-0.02569095588090079,81.64582850854858
0.17,0.011706530693011384,0.010212981924757236,81.01760469272332
0.18,-0.015558679681737353,-0.07548785695262535,80.50106511082255
0.19,-0.06428586299367363,-0.054055755882453274,80.00779307765606
0.2,-0.06543650489939697,-0.10037941613766119,79.51374545953176
0.21,-0.09095073846108845,-0.05174026200477552,79.05382357955105
0.22,-0.06311020713347804,-0.09574842838230568,78.71721970786196
0.23,-0.1072098088680487,-0.06101602021713938,78.5039338444645
0.24,-0.07819362168024271,-0.10037941613766119,78.39224961054
0.25,-0.08284621721208056,-0.05810787016838934,78.1223460452225
0.26,0.04825191817696359,-0.06506813450307544,77.7415338309383
0.27,0.30174333279871013,0.23717273004213563,77.3599460316963
0.28,0.8783399973384652,0.3894440179027536,77.03420034941654
0.29,0.7240289121991763,0.1665363840713113,76.88839037734844
0.3,0.13062287025407146,-0.14091434169867473,76.7542141796475
0.31,-0.10255721333621085,-0.007167004859478762,76.63012058639806
0.32,-0.03179273613422536,-0.04479378037174226,76.58591224380295
0.33,-0.03236805708708703,-0.02626982935032023,76.47345242492065
0.34,-0.02831579646258309,-0.07143574266668927,76.19269067019381
0.35,-0.05673164874305517,-0.035531804861031246,75.81110287095181
0.36,-0.039321936430371573,-0.07201461613610871,75.48613277362986
0.37,-0.055005685884470155,-0.021059968125545284,75.28370509964172
0.38,-0.03121741518136369,-0.06796250185017264,75.19451282949369
0.39,-0.02946643836830643,-0.010061372206575953,75.1603870913501
0.4,0.0007003907252229034,-0.04189941302464507,75.04870285742561
0.41,-0.012657060962956754,0.00035835024297393807,74.91375107476685
0.42,0.019836065896491513,-0.04189941302464507,74.63298932004001
0.43,0.005903293255450185,0.01889608396604881,74.35300315027098
0.44,0.05695677433330539,-0.0048515109818010075,74.13971728687352
0.45,0.04187335978654072,0.03626228804863196,73.9822735404383
0.46,0.09755442244176153,0.028736932946179267,73.82560537896089
0.47,0.10743493445829892,0.08200707483442045,73.67979540689281
0.48,0.16659293678516202,0.06289046764192613,73.62317770497275
0.49,0.17935005356600775,0.1393293310085977,73.7581294876315
0.5,0.2785553970029376,0.14280257182511433,74.41970345664255
0.51,0.2814320017672459,0.20012482799929157,76.41761030795841
0.52,0.33771339932980066,0.18390258815389446,80.44522299386031
0.53,0.3208790079699787,0.22038539942897192,86.2908068208664
0.54,0.3295838641263205,0.1572744085606003,93.23617011804558
0.55,0.2489638888622699,0.1364349636615005,100.13654948767184
0.56,0.19153184939399182,0.054786239070054,105.52221143469721
0.57,0.0876989243796964,0.0397355288651486,108.59663020745191
0.58,0.043024001692264065,-0.03437405792219237,109.77474375836371
0.59,-0.018460298400517952,-0.006009257920639885,109.55059970555692
0.6,-0.04802679258671337,-0.08474983246333635,108.37248615464512
0.61,-0.08689847783658451,-0.043636033432903384,106.4645471584351
0.62,-0.06020858841469744,-0.08127659164681972,103.67089014040724
0.63,-0.10140657143048751,-0.062173767155978256,100.83224919482647
0.64,-0.05092841130549397,-0.08301321205507804,98.34107031034411
0.65,-0.10603415300785311,-0.05870052633946163,96.22062103569444
0.66,-0.07994459849329996,-0.10269491001533895,94.39179170518092
0.67,-0.08922477560250344,-0.05752899669896991,92.82123216561779
0.68,-0.07123974233695816,-0.09980054266824176,91.45232471508498
0.69,-0.08922477560250344,-0.05347688241303384,90.22922723662026
0.7,-0.0648611839465353,-0.08648645287159468,89.29774970229171
0.71,-0.09385235717986905,-0.05927939980888106,88.60204999513708
0.72,-0.06833812361817757,-0.08764419981043355,88.22046219589507
0.73,-0.07819362168024271,-0.04884589465767833,88.14212811515637
0.74,-0.06253488618061637,-0.09169631409636962,88.15376188952351
0.75,-0.10313253428907251,-0.054634629351872716,87.95133421553537
0.76,-0.09385235717986905,-0.09227518756578905,87.53639626310758
0.77,-0.10255721333621085,-0.04942476812709777,86.91903063669164
0.78,-0.08051991944616163,-0.09459068144346681,86.23496470390415
0.79,-0.11126206949255264,-0.04421490690232282,85.71842512200338
0.8,-0.09155107336842236,-0.0853287059327558,85.40431321409076
0.81,-0.12286854436767504,-0.05521350282129215,85.23601127824622
0.82,-0.10660947396071478,-0.09111744062695018,85.28099520579914
0.83,-0.12344386532053671,-0.04710927424942001,85.53926499674952
0.84,-0.10893577172663371,-0.08764419981043355,85.86423509407147
0.85,-0.13620098210138246,-0.06043714674771994,86.2124727401277
0.86,-0.11706530693011384,-0.09459068144346681,86.69488658388487
0.87,-0.1512843966481471,-0.0778033508303031,87.23314254460428
0.88,-0.11416368821133324,-0.09053856715753074,87.78303227969083
0.89,-0.1321487214768785,-0.06622588144191432,88.41125609551608
0.9,-0.11358836725847157,-0.0899596936881113,88.88281174986392
0.91,-0.1356256611485208,-0.06564700797249488,89.05111368570846
0.92,-0.10836045077377204,-0.09169631409636962,88.837827822311
0.93,-0.12577016308645564,-0.05810787016838934,88.33292201477737
0.94,-0.10836045077377204,-0.0899596936881113,87.83964998161088
0.95,-0.12867178180523625,-0.06159489368655882,87.34560236348658
0.96,-0.09732929685151132,-0.07896109776914197,86.64990265633195
0.97,-0.04920244844690896,-0.025112082411481353,85.92085279599152
0.98,-0.027740475509721422,-0.059858273278300504,85.33761290771919
0.99,-0.010906084149899496,-0.012955739553673146,84.70861350693613
1.0,0.05115353689574419,0.001516097181812815,83.99119742096285
1.01,-0.004527525759476625,0.007897488047079482,83.26137197566462
1.02,0.007654270068507444,-0.028585323227997984,82.6447819342065
1.03,-0.07586732391432378,-0.024533208942061915,82.06076646097637
1.04,-0.08574783593086116,-0.0824343385856586,81.53336868966628
1.05,-0.1280714468979023,-0.05231913547419496,81.04009665649978
1.06,-0.11648998597725217,-0.09574842838230568,80.60266674029553
1.07,-0.14490583825772424,-0.06043714674771994,80.2094451666864
1.08,-0.11473900916419491,-0.09459068144346681,79.83949114181152
1.09,-0.13620098210138246,-0.054055755882453274,79.53623742330822
1.1,-0.10603415300785311,-0.09227518756578905,79.27874321731565
1.11,-0.14490583825772424,-0.08417095899391691,79.06545735391818
1.12,0.02563930333405271,0.01600171661895162,78.90801360748297
1.13,0.4044256159072822,0.26322203616601036,78.79555378860067
1.14,0.9995576207109721,0.3830764097391398,78.67223578030904
1.15,0.3475688973918658,-0.11137801205663052,78.57140973579388
1.16,-0.06138424427489303,-0.10443153042359726,78.39224961054
1.17,-0.1767986302098386,-0.02974307016683686,78.18982193655188
1.18,-0.08167056135188498,-0.05927939980888106,77.95404410937795
1.19,-0.08342153816494223,-0.03842617220812844,77.69654990338537
1.2,-0.06311020713347804,-0.05810787016838934,77.50575600376438
1.21,-0.08109524039902331,-0.03321631098335349,77.39329618488208
1.22,-0.0532547090714129,-0.05174026200477552,77.25911998718112
1.23,-0.07296570519554318,-0.026848702819739667,77.1350263939317
1.24,-0.032943378039948706,-0.03205856404451461,76.98921642186362
1.25,-0.04977776939977063,-0.011797992614834269,76.66424632454166
1.26,-0.02136191711929855,-0.03321631098335349,76.45096046114419
1.27,-0.006278502572533883,0.011949602333015551,76.27102475093253
1.28,0.014608149411791983,-0.009482498737156515,76.05851447249287
1.29,0.013457507506068642,0.020053830904887687,75.8452286090954
1.3,0.04187335978654072,0.003831591059490569,75.67692667325086
1.31,0.05000289499002085,0.05247074519237624,75.50862473740632
1.32,0.1010313621134038,0.04841863090644017,75.36281476533824
1.33,0.09755442244176153,0.09011130340629259,75.28370509964172
1.34,0.1840026490978456,0.10805638095829517,75.09291120002072
1.35,0.21356914328404103,0.17000962488782792,74.98122696609623
1.36,0.2797060389086609,0.1769561065208612,75.4295150717098
1.37,0.30289397470443347,0.21922765249013304,76.90002415171558
1.38,0.33133484093937776,0.20822905657116372,80.19858697727706
1.39,0.32900854317345885,0.21517553820419696,85.5726151499353
1.4,0.3179773892511981,0.17464061264318345,91.9905806758044
1.41,0.2338804743155052,0.13468456055158934,98.50937224618866
1.42,0.17006987645680427,0.05710173294773175,103.79420814869887
1.43,0.06100903495780933,0.01542284314953218,107.18273882936619
1.44,0.03782109916203678,-0.023954335472642477,108.79828229648224
1.45,-0.02426353583807915,-0.028006449758578546,108.93323407914099
1.46,-0.035844996758729306,-0.06159489368655882,108.03588228295604
1.47,-0.0636855280863397,-0.045951527310581136,106.37535488828706
1.48,-0.03759597357178656,-0.06969912225843096,103.86168404002825
1.49,-0.07471668200860043,-0.06101602021713938,100.94470901370877
1.5,-0.0503530903526323,-0.07953997123856141,98.25187804019608
1.51,-0.06138424427489303,-0.045951527310581136,95.92900109155826
1.52,-0.04222355514915217,-0.07664560389146421,94.04432964408251
1.53,-0.05673164874305517,-0.04942476812709777,92.50712025770517
1.54,-0.035844996758729306,-0.06738362838075321,91.14907099658168
1.55,-0.04512517386793277,-0.04189941302464507,89.99344940944634
1.56,-0.02426353583807915,-0.05752899669896991,89.11858957703784
1.57,-0.038746615477509905,-0.035531804861031246,88.44538183365967
1.58,-0.027140140602387505,-0.06159489368655882,87.99631814308829
1.59,-0.04049759229056716,-0.03263743751393405,87.60387215443696
1.6,-0.04107291324342883,-0.06159489368655882,87.22228435519494
1.61,-0.03992227133770549,-0.030321943636256298,86.63904446692261
1.62,-0.035844996758729306,-0.05810787016838934,86.06666276805962
1.63,-0.05848262555611243,-0.04016279261638675,85.64009104126468
1.64,-0.0474514716338517,-0.06101602021713938,85.25850324202268
1.65,-0.03992227133770549,-0.04247828649406451,84.95602510847719
1.66,-0.0503530903526323,-0.06854137531959208,84.77608939826551
1.67,-0.0665871468051203,-0.04942476812709777,84.8102151364091
1.68,-0.05558100683733183,-0.06275264062539769,85.00100903603011
1.69,-0.06078390936755911,-0.04247828649406451,85.33761290771919
1.7,-0.0503530903526323,-0.05927939980888106,85.77504282392344
1.71,-0.05383003002427457,-0.03726842526928956,86.38077467597223
1.72,-0.03121741518136369,-0.056371249760131026,87.0873325725362
1.73,-0.05558100683733183,-0.03263743751393405,87.68220623517566
1.74,-0.04977776939977063,-0.059858273278300504,88.04130207064121
1.75,-0.06833812361817757,-0.04247828649406451,88.25458793403867
1.76,-0.03064209422850202,-0.05579237629071159,88.28793808722445
1.77,-0.05267938811855123,-0.039005045677547874,88.08628599819413
1.78,-0.023087879977883564,-0.0528980089436144,87.71555638836145
1.79,-0.05730696969591684,-0.04826702118825889,87.31225221030078
1.8,-0.04049759229056716,-0.06680475491133377,86.93066441105879
1.81,-0.04512517386793277,-0.039005045677547874,86.52658464804031
1.82,0.02041138684935318,-0.04247828649406451,85.99918687673023
1.83,0.04014739692795571,-0.0152712334313509,85.09020130617813
1.84,0.0731908307857934,-0.013534613023092584,84.1253736186638
1.85,0.09755442244176153,0.032210173762695894,83.31798967758468
1.86,0.11206251603566453,0.03105242682385702,82.68899027680162
1.87,0.07146486792720838,0.027579186007340387,82.1507343160822
1.88,0.07841874727049293,-0.006588131390059323,81.73579636365442
1.89,0.008804911974230785,-0.014113486492512022,81.41005068137466
1.9,-0.005678167665199967,-0.0702779957278504,81.09593877346202
1.91,-0.028891117415444763,-0.04189941302464507,80.77096867614007
1.92,-0.03121741518136369,-0.06796250185017264,80.35525513875447
1.93,-0.0532547090714129,-0.05870052633946163,79.91782522255022
1.94,-0.0445498529150711,-0.0778033508303031,79.52537923389889
1.95,-0.04920244844690896,-0.06043714674771994,79.16628339843335
1.96,-0.026564819649525832,-0.07317236307494758,78.89715541807364
1.97,0.05347983466166312,-0.04305715996348394,78.70636151845264
1.98,0.28841089506500267,0.1694307514184085,78.60553547393748
1.99,0.7733314164639743,0.38654965055565643,78.5039338444645
2.0,0.9119837661036369,0.31359781070715437,78.33563190861996
2.01,0.23503111622122858,-0.09401180797404737,78.21231390032833
2.02,-0.013232381915818424,-0.0048515109818010075,78.01066181129801
2.03,0.0024263535838079152,-0.008903625267737077,77.77488398412409
2.04,0.021562028755076523,-0.05174026200477552,77.5166141931737
2.05,0.008229591021369114,-0.04016279261638675,77.23662802340466
2.06,0.024463647473857125,-0.043636033432903384,76.90002415171558
2.07,0.01635912622484924,-0.028006449758578546,76.57427846943582
2.08,0.032593182677337254,-0.039005045677547874,76.3385006422619
2.09,0.03201786172447558,-0.027427576289159105,76.14770674264089
2.1,0.04362433659959798,-0.02974307016683686,76.04688069812573
2.11,0.04942757403715918,-0.0152712334313509,76.03602250871641
2.12,0.07726810536476958,-0.01585010690077034,75.94605465361057
2.13,0.07436648664598898,0.005568211467748884,75.5761006287357
2.14,0.106834599550965,0.0026738441206516916,75.1603870913501
2.15,0.11901639537894908,0.03105242682385702,74.9695931917291
2.16,0.13642610769163266,0.03568341457921253,74.76794110269877
2.17,0.15613710381576296,0.0594172268254095,74.50967131174839
2.18,0.18572861195643062,0.06346934111134557,74.24054333138868
2.19,0.23560643717409024,0.11500286259132844,74.2071931782029
2.2,0.26985054084659577,0.12252821769378114,74.48717934797193
2.21,0.3220546638301743,0.1815870942762167,75.21700479327015
2.22,0.3684555493761916,0.183323714684475,77.26997817659046
2.23,0.39281914103215976,0.20765018310174427,81.3875587175982
2.24,0.41890869554671295,0.2035980688158082,87.28976024652432
2.25,0.4183333745938513,0.19953217182821928,94.05518783349183
2.26,0.3638029538443538,0.14338144529453375,100.48478713372806
2.27,0.2762290992370186,0.09011130340629259,105.47722750714429
2.28,0.19618444492582968,0.039156655395729156,108.51829612671321
2.29,0.1387524054575516,0.004989337998329446,109.71890164140146
2.3,0.07494180759885066,-0.04016279261638675,109.696409677625
2.31,0.04072271788081738,-0.04479378037174226,108.61912217122837
2.32,0.03086721981875224,-0.06275264062539769,106.75616710257125
2.33,0.02331300556813378,-0.05231913547419496,104.17579594794087
2.34,0.015783805271987573,-0.06796250185017264,101.37050515554589
2.35,0.01635912622484924,-0.06043714674771994,98.83511792846842
2.36,0.012882186553206972,-0.06912024878901152,96.71466865381873
2.37,0.02331300556813378,-0.06159489368655882,94.96417340404393
2.38,0.009380232927092455,-0.0749089834832059,93.42696401766658
2.39,0.016934447177710914,-0.05752899669896991,92.27134243053123
2.4,0.02563930333405271,-0.059858273278300504,91.1940549241346
2.41,0.018685423990768172,-0.062173767155978256,90.26257738980605
2.42,0.03144254077161391,-0.05521350282129215,89.81428928419247
2.43,0.03374382458306059,-0.043636033432903384,89.72432142908663
2.44,0.02506398238119104,-0.05231913547419496,89.84763943737826
2.45,0.03664544330184119,-0.05174026200477552,90.03843333699926
2.46,0.026789945239776052,-0.05579237629071159,89.9376072924841
2.47,0.023888326520995453,-0.05752899669896991,89.48854360191271
2.48,0.008229591021369114,-0.05927939980888106,88.73700177779584
2.49,0.01926074494362984,-0.05579237629071159,87.78303227969083
2.5,0.011706530693011384,-0.05927939980888106,86.81820459217649
2.51,0.019836065896491513,-0.05347688241303384,86.12250488502185
2.52,-0.007429144478257225,-0.05695012322955047,85.99918687673023
2.53,0.022737684615272112,-0.05752899669896991,86.32493255901
2.54,0.010555888787288043,-0.06101602021713938,86.62741069255549
2.55,0.018685423990768172,-0.05870052633946163,86.90817244728233
2.56,0.0001000558178889862,-0.062173767155978256,87.10982453631266
2.57,0.012882186553206972,-0.05810787016838934,87.33474417407724
2.58,0.0001000558178889862,-0.050003641596517205,87.6938400095428
2.59,0.016934447177710914,-0.05927939980888106,88.11963615137991
2.6,0.003602009444003503,-0.05870052633946163,88.52371591439838
2.61,0.005903293255450185,-0.06506813450307544,88.77035193098162
2.62,-0.027140140602387505,-0.06448926103365601,88.9161619030497
2.63,0.026789945239776052,-0.06333151409481713,88.96114583060262
2.64,-0.009180121291314482,-0.050003641596517205,88.74785996720516
2.65,0.0024263535838079152,-0.06622588144191432,88.25458793403867
2.66,-0.015558679681737353,-0.062173767155978256,87.62636411821342
2.67,0.009980567834426373,-0.06275264062539769,87.0539824193504
2.68,-0.013807702868680095,-0.05810787016838934,86.63904446692261
2.69,-0.009180121291314482,-0.06854137531959208,86.26831485708993
2.7,-0.02136191711929855,-0.06101602021713938,85.65172481563182
2.71,0.0024263535838079152,-0.06912024878901152,84.77608939826551
2.72,-0.012657060962956754,-0.06159489368655882,84.00205561037217
2.73,0.03491948044325618,-0.04421490690232282,83.28386393944108
2.74,0.06971389111415113,-0.022796588533803598,82.63314815983937
2.75,0.08944990119275366,-0.04016279261638675,82.00492434401411
2.76,0.09815475734909546,-0.005430384451220446,81.39919249196532
2.77,0.17064519740966594,0.03510454110979309,80.81517701873518
2.78,0.10743493445829892,0.009634108455337798,80.41187284067452
2.79,0.12309366995792526,0.00847636151649892,80.16446123913347
2.8,0.06508630953678551,-0.0077458783288982,79.95195096069382
2.81,0.03434415949039451,-0.05174026200477552,79.74952328670568
2.82,-0.001050586087834355,-0.04305715996348394,79.53623742330822
2.83,0.012281851645873055,-0.062173767155978256,79.32295155991075
2.84,-0.008579786383980565,-0.05752899669896991,79.08794931769464
2.85,-0.008004465431118895,-0.06333151409481713,78.87466345429718
2.86,-0.015558679681737353,-0.04884589465767833,78.75134544600556
2.87,0.007654270068507444,-0.05810787016838934,78.62725185275612
2.88,0.007654270068507444,-0.06159489368655882,78.40310779994934
2.89,0.14860790351961675,0.05015525131469849,78.06650392826025
2.9,0.5204403367495617,0.29970484744108783,77.76402579471475
2.91,1.1237018767567317,0.4705138690247807,77.5507399313173
2.92,0.5250679183269272,-0.039005045677547874,77.29247014036692
2.93,0.08132036598927353,-0.04710927424942001,77.0233421600072
2.94,-0.036420317711590974,-0.012376866084253707,76.76507236905682
2.95,0.03374382458306059,-0.03668955179987012,76.57427846943582
2.96,0.03724577820917511,-0.03842617220812844,76.35013441662903
2.97,0.04477497850532132,-0.05521350282129215,76.15934051700803
2.98,0.04187335978654072,-0.03147969057509518,75.72191060080378
2.99,0.03897174106776012,-0.04942476812709777,75.26121313586526
3.0,0.05172885784860586,-0.021059968125545284,75.00371892987269
3.01,0.07436648664598898,-0.03668955179987012,74.89125911099039
3.02,0.06623695144250885,-0.014113486492512022,74.86876714721393
3.03,0.08132036598927353,-0.022796588533803598,74.83541699402815
3.04,0.07841874727049293,-0.0031148905735426924,74.76794110269877
3.05,0.11031153922260728,-0.0077458783288982,74.56628901366844
3.06,0.1039329808321844,0.011949602333015551,74.30801922271806
3.07,0.1555617828629013,0.012528475802434989,73.9822735404383
3.08,0.15903872253454354,0.047839757437020736,73.58982755178697
3.09,0.1805006954717311,0.0443665166205041,73.26408186950721
3.1,0.2147447991442366,0.08548031565093707,73.06242978047688
3.11,0.25244082853391214,0.10342539320293967,72.9166198084088
3.12,0.3220546638301743,0.16537863713247242,73.1074137080298
3.13,0.34234098090716625,0.16016877590769749,74.12808351250638
3.14,0.38353896392295633,0.19548005754228323,76.7200884415039
3.15,0.4061515787658672,0.19548005754228323,81.19676481797718
3.16,0.4252872539371358,0.20880793004058315,87.3572361378537
3.17,0.3980470575168593,0.16306314325479468,94.20099780555992
3.18,0.32900854317345885,0.12658033197971721,100.60810514201968
3.19,0.2338804743155052,0.040893275803987474,105.42138539018205
3.2,0.16311599711351973,0.021211577843726567,108.1367083274712
3.21,0.090600543098477,-0.027427576289159105,109.11239420439486
3.22,0.06508630953678551,-0.03611067833045068,108.68659806255775
3.23,0.03897174106776012,-0.06622588144191432,107.29519864824849
3.24,0.02854092205283331,-0.05116138853535608,105.0622895547165
3.25,0.030266884911418324,-0.06854137531959208,101.96537881818536
3.26,0.015783805271987573,-0.05174026200477552,98.8684680816542
3.27,0.011706530693011384,-0.06912024878901152,96.27723873761448
3.28,0.021562028755076523,-0.05870052633946163,94.13352191423054
3.29,0.02796560109997164,-0.0702779957278504,92.43964436637579
3.3,0.021562028755076523,-0.054634629351872716,91.05987872643365
3.31,0.009980567834426373,-0.07375123654436702,89.96009925626056
3.32,0.02969156395855665,-0.045951527310581136,88.98363779437908
3.33,0.02041138684935318,-0.07548785695262535,88.18711204270929
3.34,0.023888326520995453,-0.045372653841161695,87.56974641629336
3.35,0.018685423990768172,-0.0702779957278504,87.22228435519494
3.36,0.027365266192637724,-0.045372653841161695,87.1323165000891
3.37,0.010555888787288043,-0.07143574266668927,87.1323165000891
3.38,0.015183470364653654,-0.03611067833045068,87.00899849179748
3.39,0.012882186553206972,-0.05870052633946163,86.515726458631
3.4,0.020986707802214854,-0.043636033432903384,85.71842512200338
3.41,0.0041773303968651735,-0.05870052633946163,85.00100903603011
3.42,0.007078949115645773,-0.03263743751393405,84.94439133411005
3.43,-0.009755442244176153,-0.07953997123856141,85.06770934240167
3.44,-0.0022012279935576962,-0.05058251506593665,85.05685115299235
3.45,-0.012081740010095083,-0.07664560389146421,84.97851707225365
3.46,-0.013232381915818424,-0.039583919146967315,84.95602510847719
3.47,-0.019610940306241293,-0.0824343385856586,85.32597913335206
3.48,-0.009755442244176153,-0.04768814771883945,85.64009104126468
3.49,-0.020761582211964634,-0.08417095899391691,85.99918687673023
3.5,-0.028891117415444763,-0.05521350282129215,86.54907661181677
3.51,-0.04920244844690896,-0.08301321205507804,87.15480846386556
3.52,-0.020761582211964634,-0.059858273278300504,87.60387215443696
3.53,-0.038746615477509905,-0.08301321205507804,87.80552424346729
3.54,-0.02946643836830643,-0.04016279261638675,87.88385832420599
3.55,-0.027740475509721422,-0.07317236307494758,87.79466605405796
3.56,-0.020186261259102965,-0.03726842526928956,87.51390429933112
3.57,-0.03759597357178656,-0.07838222429972254,86.99814030238817
3.58,-0.018460298400517952,-0.043636033432903384,86.25745666768061
3.59,0.02854092205283331,-0.050003641596517205,85.48342287978727
3.6,0.06276001177086658,-0.017586727309028653,84.74273924507972
3.61,0.09235151991153426,-0.022796588533803598,84.02454757414863
3.62,0.13119819120693313,0.040893275803987474,83.36219802017979
3.63,0.11553945570730681,-0.005430384451220446,82.74560797872167
3.64,0.09815475734909546,0.01947495743546825,82.16159250549153
3.65,0.05000289499002085,-0.03437405792219237,81.44417641951824
3.66,0.010555888787288043,-0.03437405792219237,80.74847671236361
3.67,-0.023663200930745233,-0.08011884470798085,80.16446123913347
3.68,-0.01613400063459902,-0.028585323227997984,79.78364902484927
3.69,-0.04339921100934776,-0.08185546511623916,79.48039530634597
3.7,-0.027740475509721422,-0.03205856404451461,79.15464962406621
3.71,-0.04802679258671337,-0.0749089834832059,78.87466345429718
3.72,-0.03121741518136369,-0.035531804861031246,78.57140973579388
3.73,-0.05383003002427457,-0.08417095899391691,78.26893160224839
3.74,0.07436648664598898,0.010791855394176673,77.95404410937795
3.75,0.37948670329845235,0.21401779126535808,77.67405793960891
3.76,0.9844742061642073,0.42476908223899223,77.438280112435
3.77,0.6550154118102481,0.029315806415598705,77.20250228526108
3.78,0.11671511156750239,-0.08648645287159468,77.14666016829884
3.79,-0.08224588230474665,-0.050003641596517205,77.23662802340466
3.8,-0.0004752651349726844,0.003831591059490569,77.23662802340466
3.81,-0.0027765489464193667,-0.045951527310581136,77.1350263939317
3.82,0.015183470364653654,-0.014113486492512022,76.81005629660974
3.83,-0.01613400063459902,-0.05058251506593665,76.40597653359129
3.84,0.019836065896491513,0.00035835024297393807,76.01353054493995
3.85,0.014608149411791983,-0.03437405792219237,75.59781700755435
3.86,0.015183470364653654,0.0009372237123933765,75.3511809909711
3.87,0.018085089083434255,-0.028585323227997984,75.29533887400886
3.88,0.05057821594288252,0.017159463557790498,75.34032280156178
3.89,0.04187335978654072,-0.017586727309028653,75.23949675704661
3.9,0.07204018888007006,0.03626228804863196,75.00371892987269
3.91,0.08132036598927353,0.007897488047079482,74.73459094951298
3.92,0.0935021618172576,0.049576377845279046,74.37549511404744
3.93,0.11031153922260728,0.03394679417095421,74.07224139554414
3.94,0.1474572616138934,0.08663806258977595,73.85895553214668
3.95,0.17472247198864213,0.07448171973196775,73.7581294876315
3.96,0.21879705976874056,0.14048707794743656,73.66816163252567
3.97,0.26925020593926186,0.14743355958046983,73.7581294876315
3.98,0.3052202724703524,0.20475581575464707,74.04974943176768
3.99,0.3359624225167434,0.18274484121505558,75.04870285742561
4.0,0.37193248904783394,0.24932907289994383,77.69654990338537
4.01,0.37948670329845235,0.20012482799929157,82.32989444133607
4.02,0.3754094287194762,0.21922765249013304,88.44538183365967
4.03,0.30001736994012507,0.12426483810203945,95.08749141233555
4.04,0.23212949750244796,0.10863525442771461,100.9896929412617
4.05,0.12889690739548645,0.010791855394176673,105.42138539018205
4.06,0.08247100789499687,0.017159463557790498,107.9459144278502
4.07,0.02216236366241044,-0.04768814771883945,108.51829612671321
4.08,0.0030016745366695857,-0.01990222118670641,107.63180251993757
4.09,-0.020186261259102965,-0.06159489368655882,105.89216545957208
4.1,-0.023087879977883564,-0.025112082411481353,103.33428626871816
4.11,-0.04107291324342883,-0.07953997123856141,100.13654948767184
4.12,-0.032943378039948706,-0.03205856404451461,97.33125869527686
4.13,-0.03992227133770549,-0.08417095899391691,94.95253962967679
4.14,-0.02541417774380249,-0.028006449758578546,92.93291639954228
4.15,-0.04339921100934776,-0.0853287059327558,91.17156296035814
4.16,-0.022512559025021892,-0.027427576289159105,89.71346323967731
4.17,-0.052104067165689556,-0.0853287059327558,88.57955803136062
4.18,-0.016709321587460694,-0.027427576289159105,87.79466605405796
4.19,-0.027740475509721422,-0.07143574266668927,87.1323165000891
4.2,-0.02831579646258309,-0.030321943636256298,86.52658464804031
4.21,-0.033543712947282624,-0.07375123654436702,86.1000129212454
4.22,-0.03526967580586763,-0.025112082411481353,85.78590101333276
4.23,-0.041648234196290504,-0.07433011001378646,85.50591484356373
4.24,-0.04339921100934776,-0.024533208942061915,85.06770934240167
4.25,-0.04572550877526669,-0.07896109776914197,84.40613537339064
4.26,-0.0723903842426815,-0.02974307016683686,83.59797584735371
4.27,-0.05440535097713624,-0.07896109776914197,82.90227614019908
4.28,-0.04920244844690896,-0.03263743751393405,82.7231160149452
4.29,-0.05963326746183577,-0.08011884470798085,82.98138580589558
4.3,-0.0648611839465353,-0.027427576289159105,83.39632375832338
4.31,-0.07181506328981983,-0.0749089834832059,83.92372152963347
4.32,-0.07529200296146212,-0.03726842526928956,84.29367555450834
4.33,-0.08342153816494223,-0.07953997123856141,84.55194534545872
4.34,-0.07586732391432378,-0.030900817105675736,84.82107332581843
4.35,-0.09792963175884524,-0.08938082021869186,85.20266112506043
4.36,-0.10951109267949538,-0.045951527310581136,85.74091708577984
4.37,-0.09617865494578798,-0.08011884470798085,86.20083896576055
4.38,-0.09212639432128404,-0.04247828649406451,86.45910875671093
4.39,-0.09442767813273072,-0.08648645287159468,86.42575860352515
4.4,-0.09792963175884524,-0.03379518445277293,86.13413865938898
4.41,-0.10023091557029191,-0.08648645287159468,85.69593315822692
4.42,-0.1101114275868293,-0.045951527310581136,85.14681900809819
4.43,-0.10603415300785311,-0.08822307327985299,84.57443730923518
4.44,-0.10140657143048751,-0.034952931391611805,83.96870545718639
4.45,-0.09732929685151132,-0.0824343385856586,83.39632375832338
4.46,-0.08922477560250344,-0.04074166608580619,82.77895813190746
4.47,-0.07181506328981983,-0.07433011001378646,81.9599404164612
4.48,-0.026564819649525832,-0.005430384451220446,81.11843073723848
4.49,-0.014383023821541765,-0.05870052633946163,80.51269888518969
4.5,0.019836065896491513,0.01658059008837106,80.00779307765606
4.51,0.062184690818004915,0.007897488047079482,79.51374545953176
4.52,0.03839642011489845,0.04610313702876242,79.07631554332751
4.53,0.0018510326309462445,-0.02221771506438416,78.58304351016102
4.54,-0.032943378039948706,0.01889608396604881,78.06650392826025
4.55,-0.0723903842426815,-0.07317236307494758,77.77488398412409
4.56,-0.10083125047762584,-0.029164196697417422,77.52824796754084
4.57,-0.10255721333621085,-0.0778033508303031,77.14666016829884
4.58,-0.11473900916419491,-0.03147969057509518,76.76507236905682
4.59,-0.1101114275868293,-0.09285406103520849,76.51843635247357
4.6,-0.11183739044541431,-0.04305715996348394,76.28265852529965
4.61,-0.12111756755461778,-0.08822307327985299,76.08100643626933
4.62,-0.11068674853969097,-0.04942476812709777,75.92356268983411
4.63,0.032593182677337254,-0.008324751798317638,75.8785787622812
4.64,0.384114284875818,0.3020203413187656,75.85608679850473
4.65,0.9891268016960453,0.4438719067298337,75.67692667325086
4.66,0.507082885061382,0.04494539008992354,75.3511809909711
4.67,-0.026564819649525832,-0.09285406103520849,75.01457711928201
4.68,-0.13272404242974017,0.010212981924757236,74.77879929210809
4.69,-0.0619595652277547,-0.04189941302464507,74.63298932004001
4.7,-0.0677628026653159,-0.02221771506438416,74.40884526723322
4.71,-0.06543650489939697,-0.06333151409481713,74.1730674400593
4.72,-0.0764676588216577,-0.013534613023092584,73.9489233872525
4.73,-0.06078390936755911,-0.06796250185017264,73.76898767704084
4.74,-0.0764676588216577,-0.010061372206575953,73.55647739860119
4.75,-0.05092841130549397,-0.05116138853535608,73.35404972461305
4.76,-0.05848262555611243,-0.0077458783288982,73.1074137080298
4.77,-0.04107291324342883,-0.05116138853535608,72.71496771937846
4.78,-0.028891117415444763,0.012528475802434989,72.56838216235258
4.79,-0.012657060962956754,-0.027427576289159105,72.53503200916678
4.8,0.0030016745366695857,0.043208769681665225,72.55752397294324
4.81,0.03434415949039451,0.001516097181812815,72.47918989220454
4.82,0.03549480139611785,0.06115384723366782,72.1984281374777
4.83,0.09002522214561533,0.039156655395729156,71.81684033823569
4.84,0.08307134280233079,0.1068986340194563,71.50272843032307
4.85,0.1439553079877789,0.09358454422280921,71.41276057521723
4.86,0.18282699323765,0.17174624529608626,71.76099822127345
4.87,0.23503111622122858,0.15090680039698645,73.00658766351464
4.88,0.2762290992370186,0.2273318810620052,76.01353054493995
4.89,0.30929754704932855,0.18679695550099165,81.15178089042426
4.9,0.3191530451113937,0.2394882239198134,87.67134804576634
4.91,0.29536477440828723,0.1590110289688586,94.51510971347254
4.92,0.22865255783080568,0.15958990243827803,100.6530890695726
4.93,0.15093420128553567,0.05304961866179568,104.93897154642488
4.94,0.06043371400494766,0.0443665166205041,107.42937484594944
4.95,0.009380232927092455,-0.03379518445277293,108.33836041650153
4.96,-0.052104067165689556,-0.006588131390059323,107.84508838333504
4.97,-0.07181506328981983,-0.06796250185017264,106.31873718636702
4.98,-0.09675397589864965,-0.030321943636256298,103.90666796758117
4.99,-0.08342153816494223,-0.07722447736088366,100.60810514201968
5.0,-0.10313253428907251,-0.03437405792219237,97.48870244171208
5.01,-0.10488351110212978,-0.09401180797404737,94.96417340404393
5.02,-0.10313253428907251,-0.03726842526928956,92.85458231880357
5.03,-0.09792963175884524,-0.08938082021869186,91.10408706902876
5.04,-0.09212639432128404,-0.034952931391611805,89.80265550982534
5.05,-0.09442767813273072,-0.0824343385856586,88.84946159667814
5.06,-0.1072098088680487,-0.03726842526928956,88.13126992574705
5.07,-0.08342153816494223,-0.08127659164681972,87.5472544525169
5.08,-0.11241271139827598,-0.04305715996348394,87.00899849179748
5.09,-0.08514750102352725,-0.08301321205507804,86.7507287008471
5.1,-0.10370785524193418,-0.03379518445277293,86.66153643069907
5.11,-0.08864945464964176,-0.0778033508303031,86.57156857559323
5.12,-0.10951109267949538,-0.03205856404451461,86.13413865938898
5.13,-0.11706530693011384,-0.09285406103520849,85.12432704432173
5.14,-0.12459450722626006,-0.04421490690232282,84.15949935680739
5.15,-0.11068674853969097,-0.09169631409636962,83.49714980283855
5.16,-0.12867178180523625,-0.03842617220812844,83.0597198866343
5.17,-0.11706530693011384,-0.09690617532114457,82.89141795078974
5.18,-0.15883861089876558,-0.06333151409481713,82.84643402323684
5.19,-0.1298224237109596,-0.09864279572940288,82.98138580589558
5.2,-0.13272404242974017,-0.05058251506593665,83.04808611226716
5.21,-0.1379519589144397,-0.10616815083185557,83.04808611226716
5.22,-0.16984475086655407,-0.05695012322955047,83.26137197566462
5.23,-0.14025324272588638,-0.09690617532114457,83.66545173868309
5.24,-0.14723213602364318,-0.045951527310581136,84.21534147376964
5.25,-0.14953341983508986,-0.10269491001533895,84.75359743448905
5.26,-0.14085357763322032,-0.04653040078000058,84.97851707225365
5.27,-0.143154861444667,-0.10906251817895277,85.11269326995459
5.28,-0.1547613363197894,-0.056371249760131026,85.10183508054527
5.29,-0.13039774466382126,-0.09806392225998344,85.01186722543943
5.3,-0.1512843966481471,-0.05695012322955047,84.76523120885618
5.31,-0.15070907569528544,-0.10848364470953333,84.45111930094356
5.32,-0.15418601536692772,-0.06159489368655882,83.88959579148988
5.33,-0.13677630305424412,-0.10616815083185557,83.2163880481117
5.34,-0.1454811592105859,-0.06101602021713938,82.52068834095707
5.35,-0.143154861444667,-0.11369350593430828,81.7691465168402
5.36,-0.14665681507078152,-0.06159489368655882,81.17427285420072
5.37,-0.13677630305424412,-0.10153716307650007,80.64687508289065
5.38,-0.14953341983508986,-0.06506813450307544,80.15360304972414
5.39,-0.13329936338260184,-0.10732589777069446,79.53623742330822
5.4,-0.14085357763322032,-0.05579237629071159,78.88552164370651
5.41,-0.09617865494578798,-0.09748504879056401,78.35812387239642
5.42,-0.07414136105573876,-0.03726842526928956,77.7415338309383
5.43,-0.03179273613422536,-0.06796250185017264,77.15751835770816
5.44,0.0030016745366695857,0.0067397411082406045,76.82091448601906
5.45,0.03724577820917511,-0.01121911914541483,76.65261255017452
5.46,-0.014958344774403436,0.013686222741273867,76.48431061432998
5.47,-0.02831579646258309,-0.04768814771883945,76.23767459774673
5.48,-0.09675397589864965,-0.03668955179987012,75.86772057287186
5.49,-0.10603415300785311,-0.11427237940372771,75.47449899926272
5.5,-0.1512843966481471,-0.0778033508303031,75.26121313586526
5.51,-0.1298224237109596,-0.11195688552604996,75.1603870913501
5.52,-0.15593699217998497,-0.06622588144191432,75.00371892987269
5.53,-0.14433051730486257,-0.12121886103676098,74.82378321966101
5.54,-0.15883861089876558,-0.07606673042204477,74.63298932004001
5.55,-0.14490583825772424,-0.11890336715908323,74.4763211585626
5.56,-0.09732929685151132,-0.06564700797249488,74.25140152079801
5.57,0.13352448897285207,0.10168877279468135,73.89308127029027
5.58,0.6254239036695804,0.32866230361371257,73.47736773290467
5.59,0.81915698105713,0.25569668106355764,73.08492174425334
5.6,0.10510863669237999,-0.15133406414822462,72.77080983634072
5.61,-0.17217104863247298,-0.09169631409636962,72.52417381975746
5.62,-0.16289087152326953,-0.045951527310581136,72.4225721902845
5.63,-0.10255721333621085,-0.08417095899391691,72.3892220370987
5.64,-0.11996692564889444,-0.0528980089436144,72.34423810954578
5.65,-0.08457218007066558,-0.09806392225998344,72.22092010125417
5.66,-0.10083125047762584,-0.04247828649406451,72.05261816540963
5.67,-0.07876894263310438,-0.08417095899391691,71.8509660763793
5.68,-0.08922477560250344,-0.04189941302464507,71.63768021298183
5.69,-0.0764676588216577,-0.07664560389146421,71.48023646654661
5.7,-0.08980009655536511,-0.03611067833045068,71.26695060314916
5.71,-0.052104067165689556,-0.05870052633946163,70.99782262278944
5.72,-0.06428586299367363,-0.01585010690077034,70.81866249753557
5.73,-0.035844996758729306,-0.050003641596517205,70.72869464242973
5.74,-0.03236805708708703,0.005568211467748884,70.62786859791457
5.75,0.011131209740149714,-0.023954335472642477,70.38045699637351
5.76,0.011706530693011384,0.029315806415598705,69.96551904394573
5.77,0.05985839305208599,0.01947495743546825,69.71888302736248
5.78,0.07261550983293173,0.09821553197816472,69.78635891869186
5.79,0.12772125153529088,0.0669425819278622,69.99964478208932
5.8,0.18167635133192667,0.15495891468292253,70.50455058962295
5.81,0.23678209303428582,0.1341056870821699,71.96265031030379
5.82,0.23910839080020474,0.19432231060344435,74.94710122795264
5.83,0.275053443376823,0.15553778815234198,79.69368116974343
5.84,0.2843336204860265,0.19548005754228323,85.7634090495563
5.85,0.2454869491906276,0.10226764626410079,92.2938343943077
5.86,0.1462816057536978,0.09590003810048697,98.24024426582895
5.87,0.09292684086439593,-0.003693764042962131,102.63858656156353
5.88,-0.005102846712338295,-0.0048515109818010075,105.11813167167875
5.89,-0.04222355514915217,-0.07317236307494758,105.71300533431821
5.9,-0.09850495271170691,-0.05116138853535608,105.00644743775426
5.91,-0.10313253428907251,-0.10153716307650007,103.35677823249462
5.92,-0.1396779217730247,-0.07085686919726983,100.75391511408776
5.93,-0.11648998597725217,-0.11195688552604996,97.45535228852629
5.94,-0.14257954049180532,-0.06448926103365601,94.47012578591962
5.95,-0.11706530693011384,-0.1154301263425666,92.03556460335732
5.96,-0.1321487214768785,-0.06738362838075321,90.11676741773796
5.97,-0.12229322341481337,-0.11195688552604996,88.7253680034287
5.98,-0.11939160469603277,-0.062173767155978256,87.36809432726304
5.99,-0.10545883205499144,-0.10558927736243615,86.1791225869419
6.0,-0.1130130463056099,-0.059858273278300504,85.14681900809819
6.01,-0.10660947396071478,-0.10095828960708063,84.32780129265193
6.02,-0.10951109267949538,-0.045951527310581136,83.65459354927376
6.03,-0.10083125047762584,-0.09864279572940288,83.19389608433524
6.04,-0.12692080499217898,-0.059858273278300504,83.0597198866343
6.05,-0.09617865494578798,-0.09343293450462793,82.86892598701328
6.06,-0.13272404242974017,-0.05870052633946163,82.50983015154775
6.07,-0.10603415300785311,-0.09806392225998344,82.00492434401411
6.08,-0.11531433011705658,-0.054055755882453274,81.33171660063594
6.09,-0.1043081901492681,-0.09285406103520849,80.63601689348131
6.1,-0.12344386532053671,-0.05231913547419496,80.14196927535701
6.11,-0.11648998597725217,-0.10443153042359726,79.91782522255022
6.12,-0.1379519589144397,-0.05231913547419496,79.74952328670568
6.13,-0.10778512982091037,-0.10443153042359726,79.64869724219051
6.14,-0.1338746843354635,-0.06043714674771994,79.92945899691736
6.15,-0.1280714468979023,-0.10616815083185557,80.53519084896615
6.16,-0.11358836725847157,-0.04710927424942001,81.33171660063594
6.17,-0.09850495271170691,-0.09227518756578905,82.06076646097637
6.18,-0.12924710275809792,-0.05174026200477552,82.54318030473353
6.19,-0.11764062788297551,-0.09574842838230568,82.95889384211912
6.2,-0.11764062788297551,-0.05174026200477552,83.42967391150917
6.21,-0.08514750102352725,-0.08185546511623916,83.85624563830409
6.22,-0.12519484213359397,-0.04653040078000058,83.91208775526633
6.23,-0.09095073846108845,-0.08880194674927243,83.57548388357725
6.24,-0.12459450722626006,-0.04247828649406451,82.93640187834266
6.25,-0.09037541750822678,-0.0853287059327558,82.28568609874095
6.26,-0.08804911974230785,-0.030900817105675736,81.66832047232504
6.27,-0.026564819649525832,-0.05521350282129215,81.07344680968556
6.28,-0.019035619353379624,-0.009482498737156515,80.52355707459901
6.29,0.03491948044325618,-0.03205856404451461,79.9069670331409
6.3,0.05115353689574419,0.043208769681665225,79.30045959613429
6.31,0.03664544330184119,-0.016428980370189777,78.58304351016102
6.32,-0.0016259070406960255,0.024684818660243198,77.96567788374509
6.33,-0.03817129452464823,-0.054634629351872716,77.38243799547276
6.34,-0.08051991944616163,-0.04016279261638675,76.73172221587105
6.35,-0.09617865494578798,-0.09227518756578905,76.19269067019381
6.36,-0.11588965106991826,-0.045951527310581136,75.7327687902131
6.37,-0.10140657143048751,-0.09690617532114457,75.36281476533824
6.38,-0.12519484213359397,-0.04884589465767833,75.04870285742561
6.39,-0.10140657143048751,-0.08822307327985299,74.88040092158107
6.4,-0.13852727986730137,-0.062173767155978256,74.4763211585626
6.41,-0.05730696969591684,-0.09285406103520849,73.95978157666184
6.42,0.09697910148889986,0.12773807891855607,73.62317770497275
6.43,0.5952570745760511,0.2736555413172131,73.44401757971889
6.44,0.9142850499150835,0.3610792179012011,73.38817546275664
6.45,0.23850805589287083,-0.17101576210848551,73.28657383328367
6.46,-0.10836045077377204,-0.034952931391611805,73.18574778876851
6.47,-0.08747379878944618,-0.05174026200477552,73.12990567180626
6.48,-0.07123974233695816,-0.01585010690077034,73.05157159106756
6.49,-0.0445498529150711,-0.0749089834832059,72.77080983634072
6.5,-0.07471668200860043,-0.041320539555225626,72.33337992013647
6.51,-0.03469435485300596,-0.0702779957278504,71.91766638275087
6.52,-0.0532547090714129,-0.016428980370189777,71.63768021298183
6.53,-0.0004752651349726844,-0.05174026200477552,71.49187024091374
6.54,-0.032943378039948706,-0.017007853839609215,71.40190238580792
6.55,-0.0016259070406960255,-0.06101602021713938,71.25609241373982
6.56,-0.019035619353379624,0.003831591059490569,71.08779047789528
6.57,0.016934447177710914,-0.030321943636256298,70.87450461449782
6.58,0.02331300556813378,0.02352707172140432,70.6387267873239
6.59,0.05753209528616706,-0.006588131390059323,70.38045699637351
6.6,0.05580613242758205,0.04494539008992354,70.21215506052897
6.61,0.09988072020768046,0.025842565599082074,70.21215506052897
6.62,0.10973621826974561,0.08027045442616212,70.02213674586578
6.63,0.16891923455108093,0.05999610029482894,69.70724925299534
6.64,0.1892055516280729,0.13759271060033937,69.59556501907086
6.65,0.26347198245617287,0.12484371157145889,69.7638669549154
6.66,0.287835574112141,0.20244032187696934,70.56039270658519
6.67,0.33423645965815835,0.183323714684475,72.70333394501134
6.68,0.34584293453328074,0.22848962800084405,76.73172221587105
6.69,0.3638029538443538,0.183323714684475,82.58816423228645
6.7,0.31450044957955586,0.18274484121505558,89.30938347665884
6.71,0.2599700288300584,0.0872169360591954,95.64823933683142
6.72,0.14570628480083614,0.05999610029482894,100.70893118653484
6.73,0.09873007830195712,-0.017586727309028653,103.76085799551308
6.74,0.026789945239776052,-0.0007993966958649388,104.78152779998966
6.75,-0.004527525759476625,-0.08359208552449748,104.38908181133833
6.76,-0.05150373225835564,-0.039583919146967315,102.94184028006683
6.77,-0.027740475509721422,-0.08764419981043355,100.71978937594417
6.78,-0.05383003002427457,-0.04479378037174226,97.70198830510954
6.79,-0.04222355514915217,-0.0870653263410141,94.69504542368422
6.8,-0.055005685884470155,-0.054055755882453274,92.215500313569
6.81,-0.02136191711929855,-0.08127659164681972,90.11676741773796
6.82,-0.04512517386793277,-0.045372653841161695,88.44538183365967
6.83,-0.019035619353379624,-0.07606673042204477,87.06484060875974
6.84,-0.05150373225835564,-0.04421490690232282,85.77504282392344
6.85,-0.020186261259102965,-0.07548785695262535,84.57443730923518
6.86,-0.04282389005648609,-0.03726842526928956,83.66545173868309
6.87,-0.016709321587460694,-0.07201461613610871,83.0255941484907
6.88,-0.04512517386793277,-0.03726842526928956,82.6106561960629
6.89,-0.02426353583807915,-0.06506813450307544,82.27405232437383
6.9,-0.05558100683733183,-0.03437405792219237,81.86997256135535
6.91,-0.038746615477509905,-0.07664560389146421,81.36506675382174
6.92,-0.0723903842426815,-0.04016279261638675,80.53519084896615
6.93,-0.04512517386793277,-0.07606673042204477,79.37956926183081
6.94,-0.06891344457103923,-0.04942476812709777,78.59390169957034
6.95,-0.04049759229056716,-0.07375123654436702,78.21231390032833
6.96,-0.08051991944616163,-0.04653040078000058,78.18982193655188
6.97,-0.0561563277901935,-0.08127659164681972,78.51556761883164
6.98,-0.08284621721208056,-0.043636033432903384,78.9196473818501
6.99,-0.06428586299367363,-0.07433011001378646,79.21126732598627
7.0,-0.0793692775404383,-0.041320539555225626,79.36793548746367
7.01,-0.0648611839465353,-0.08127659164681972,79.6820473953763
7.02,-0.07181506328981983,-0.04305715996348394,80.18695320290993
7.03,-0.0561563277901935,-0.0824343385856586,80.78182686554939
7.04,-0.08342153816494223,-0.04247828649406451,81.37670052818886
7.05,-0.07586732391432378,-0.08648645287159468,81.81413044439311
7.06,-0.07181506328981983,-0.03668955179987012,82.1507343160822
7.07,0.0007003907252229034,-0.05347688241303384,82.12824235230575
7.08,-0.0004752651349726844,-0.0077458783288982,81.71330439987796
7.09,0.05405515561452479,-0.02569095588090079,81.15178089042426
7.1,0.05753209528616706,0.039156655395729156,80.63601689348131
7.11,0.09697910148889986,0.024684818660243198,80.23193713046285
7.12,0.015183470364653654,0.028158059476759825,79.78364902484927
7.13,0.02854092205283331,-0.012955739553673146,79.17714158784267
7.14,-0.038746615477509905,-0.0152712334313509,78.43723353809293
7.15,-0.04512517386793277,-0.07722447736088366,77.65156597583245
7.16,-0.09327703622700738,-0.04826702118825889,76.98921642186362
7.17,-0.0648611839465353,-0.07548785695262535,76.49594438869711
7.18,-0.09850495271170691,-0.04653040078000058,75.97940480679635
7.19,-0.08922477560250344,-0.08301321205507804,75.44114884607694
7.2,-0.09965559461743025,-0.05521350282129215,75.01457711928201
7.21,-0.0764676588216577,-0.07953997123856141,74.68960702196006
7.22,-0.019610940306241293,-0.04074166608580619,74.30801922271806
7.23,0.24083435365878977,0.1636420167242141,73.91479764910892
7.24,0.7182256747616151,0.38423415667797867,73.46650954349535
7.25,0.8481731682449359,0.2736555413172131,73.05157159106756
7.26,0.18978087258093457,-0.10964139164837221,72.77080983634072
7.27,-0.0706644213840965,-0.039005045677547874,72.56838216235258
7.28,-0.0665871468051203,-0.0152712334313509,72.3892220370987
7.29,-0.019610940306241293,-0.05695012322955047,72.22092010125417
7.3,-0.05267938811855123,-0.03437405792219237,72.01926801222383
7.31,-0.023087879977883564,-0.059858273278300504,71.72687248312987
7.32,-0.05092841130549397,-0.037847298738709,71.57020432165245
7.33,-0.020761582211964634,-0.059858273278300504,71.44688631336084
7.34,-0.02136191711929855,-0.023375462003223036,71.20025029677758
7.35,0.009380232927092455,-0.041320539555225626,70.9078547676836
7.36,0.005327972302588514,-0.007167004859478762,70.68371071487682
7.37,0.021562028755076523,-0.03263743751393405,70.58288467036165
7.38,0.018685423990768172,0.0020949706512322533,70.52704255339941
7.39,0.059283072099224315,-0.011797992614834269,70.35874061755487
7.4,0.04710127627124025,0.02352707172140432,69.93216889075994
7.41,0.09525313863031486,0.021211577843726567,69.43812127263564
7.42,0.11206251603566453,0.06462708805018445,69.03404150961717
7.43,0.152084843191259,0.0594172268254095,68.74242156548101
7.44,0.17472247198864213,0.11616060953016731,68.71992960170455
7.45,0.24721291204921264,0.12137047075494226,69.00069135643139
7.46,0.27042586179945743,0.18390258815389446,69.87555118883989
7.47,0.3255316035018166,0.16885187794898907,71.83933230201215
7.48,0.3417656599543046,0.21343891779593865,75.26121313586526
7.49,0.38468960582867967,0.20707130963232484,80.31027121120155
7.5,0.3551231116424842,0.20417694228522765,86.3691409016051
7.51,0.3278579012677355,0.13468456055158934,92.58545433844387
7.52,0.23097885559672462,0.09995215238642303,97.90364039413986
7.53,0.15846340158168187,0.014265096210693304,101.67375887404918
7.54,0.07666777045743567,-0.00022052322644550035,103.62590621285432
7.55,0.059283072099224315,-0.041320539555225626,103.82833388684246
7.56,-0.001050586087834355,-0.039005045677547874,102.88522257814677
7.57,0.0024263535838079152,-0.07664560389146421,101.14636110273909
7.58,-0.02946643836830643,-0.05347688241303384,98.4868802824122
7.59,0.0012757116780845739,-0.07433011001378646,95.45744543721042
7.6,-0.04630082972812836,-0.062173767155978256,92.91120002072363
7.61,-0.021937238072160224,-0.08127659164681972,90.92492694377489
7.62,-0.027740475509721422,-0.06101602021713938,89.26439954910593
7.63,-0.008579786383980565,-0.08185546511623916,87.81715801783442
7.64,-0.03236805708708703,-0.05695012322955047,86.58242676500257
7.65,0.0012757116780845739,-0.0778033508303031,85.53926499674952
7.66,-0.017859963493184035,-0.05521350282129215,84.59692927301164
7.67,0.003602009444003503,-0.07722447736088366,83.80040352134185
7.68,-0.018460298400517952,-0.05116138853535608,83.22802182247884
7.69,-0.017859963493184035,-0.07722447736088366,82.90227614019908
7.7,-0.032943378039948706,-0.056371249760131026,82.79059190627459
7.71,-0.006278502572533883,-0.07433011001378646,82.57730604287713
7.72,-0.024838856790940823,-0.04768814771883945,82.20657643304445
7.73,-0.013232381915818424,-0.08359208552449748,81.62333654477212
7.74,-0.03121741518136369,-0.05579237629071159,80.75933490177293
7.75,-0.014383023821541765,-0.07896109776914197,79.94031718632668
7.76,-0.02946643836830643,-0.05231913547419496,79.25625125353919
7.77,-0.024838856790940823,-0.07664560389146421,78.82967952674426
7.78,-0.04339921100934776,-0.05521350282129215,78.77383740978202
7.79,-0.024838856790940823,-0.07838222429972254,79.02047342636526
7.8,-0.039321936430371573,-0.056371249760131026,79.35707729805435
7.81,-0.03469435485300596,-0.0824343385856586,79.71617313351989
7.82,-0.03992227133770549,-0.05174026200477552,80.14196927535701
7.83,-0.008579786383980565,-0.06969912225843096,80.58017477651907
7.84,0.03724577820917511,-0.017007853839609215,81.0509548459091
7.85,0.05870775114636265,-0.04884589465767833,81.36506675382174
7.86,0.0789940682233546,-0.0007993966958649388,81.60084458099566
7.87,0.1387524054575516,0.01542284314953218,81.78078029120734
7.88,0.08422198470805413,0.021211577843726567,81.8816063357225
7.89,0.08422198470805413,-0.00427263751238157,81.81413044439311
7.9,0.02796560109997164,-0.005430384451220446,81.4325426451511
7.91,-0.006853823525395554,-0.07838222429972254,80.87179472065523
7.92,-0.03759597357178656,-0.05752899669896991,80.23193713046285
7.93,-0.04630082972812836,-0.08822307327985299,79.59285512522827
7.94,-0.06833812361817757,-0.06391038756423657,78.97548949881234
7.95,-0.036420317711590974,-0.08417095899391691,78.4255997637258
7.96,-0.06253488618061637,-0.07317236307494758,77.9323277305593
7.97,-0.05558100683733183,-0.09343293450462793,77.38243799547276
7.98,-0.06601182585225863,-0.08069771817740029,76.8325482603862
7.99,0.07841874727049293,0.0020949706512322533,76.27102475093253
8.0,0.4252872539371358,0.2916006188692157,75.6544347094744
8.01,1.028573807898778,0.42766344958608943,75.10454497438785
8.02,0.47111281853029147,-0.06796250185017264,74.65548128381647
8.03,0.03724577820917511,-0.09806392225998344,74.27389348457446
8.04,-0.10083125047762584,-0.02974307016683686,73.9489233872525
8.05,-0.017284642540322366,-0.04653040078000058,73.6456696687492
8.06,-0.019035619353379624,-0.05058251506593665,73.40989184157529
8.07,-0.011481405102761166,-0.06738362838075321,73.18574778876851
8.08,-0.018460298400517952,-0.041320539555225626,72.94996996159458
8.09,-0.0016259070406960255,-0.05347688241303384,72.68084198123488
8.1,-0.006853823525395554,-0.029164196697417422,72.501681855981
8.11,0.015183470364653654,-0.05579237629071159,72.36673007332224
8.12,0.0012757116780845739,-0.022796588533803598,72.1984281374777
8.13,0.026214624286914383,-0.05174026200477552,72.03012620163317
8.14,0.03086721981875224,-0.008903625267737077,71.86182426578861
8.15,0.04362433659959798,-0.028006449758578546,71.6260464386147
8.16,0.05985839305208599,0.010791855394176673,71.23360044996336
8.17,0.0935021618172576,0.00035835024297393807,70.85201265072136
8.18,0.0993053992548188,0.03452566764037365,70.48205862584649
8.19,0.14222934512919386,0.03857778192630972,70.17880490734319
8.2,0.1613650203004625,0.08027045442616212,70.06634508846089
8.21,0.21764641786301722,0.09995215238642303,70.07797886282802
8.22,0.24431129333043203,0.1485913065193087,70.26877276244903
8.23,0.29478945345542557,0.15495891468292253,71.00945639715658
8.24,0.3284332222205972,0.21112342391826092,73.18574778876851
8.25,0.3440919577202235,0.1891124493786694,77.22499424903754
8.26,0.3475688973918658,0.20880793004058315,82.6447819342065
8.27,0.34061501804858124,0.1590110289688586,88.69201785024292
8.28,0.2506898517208549,0.11210849524423125,94.5717274153926
8.29,0.17587311389436547,0.03742003498747084,99.21670572771042
8.3,0.09292684086439593,0.007897488047079482,102.08869682647698
8.31,0.04652595531837858,-0.04305715996348394,103.2784441517559
8.32,-0.007429144478257225,-0.041320539555225626,103.05352451399132
8.33,-0.019035619353379624,-0.07606673042204477,101.89790292685598
8.34,-0.027140140602387505,-0.06101602021713938,99.97988132619443
8.35,-0.04339921100934776,-0.08648645287159468,97.26455838890529
8.36,-0.038746615477509905,-0.0702779957278504,94.5717274153926
8.37,-0.03411903390014429,-0.08474983246333635,92.33881832186061
8.38,-0.04282389005648609,-0.0702779957278504,90.63330699963873
8.39,-0.041648234196290504,-0.08011884470798085,89.19692365777655
8.4,-0.032943378039948706,-0.05810787016838934,87.76054031591437
8.41,-0.035844996758729306,-0.08359208552449748,86.5599348012261
8.42,-0.027740475509721422,-0.06969912225843096,85.56175696052598
8.43,-0.021937238072160224,-0.0749089834832059,84.77608939826551
8.44,-0.02946643836830643,-0.05927939980888106,84.08038969111088
8.45,-0.018460298400517952,-0.06680475491133377,83.67630992809241
8.46,-0.014958344774403436,-0.050003641596517205,83.60960962172084
8.47,-0.017284642540322366,-0.06506813450307544,83.56462569416793
8.48,-0.02136191711929855,-0.05231913547419496,83.16054593114946
8.49,-0.027740475509721422,-0.07375123654436702,82.38651214325613
8.5,-0.03236805708708703,-0.06275264062539769,81.42168445574178
8.51,-0.02426353583807915,-0.07143574266668927,80.59103296592839
8.52,-0.04339921100934776,-0.05927939980888106,79.88447506936444
8.53,-0.03121741518136369,-0.0778033508303031,79.18877536220981
8.54,0.007654270068507444,-0.037847298738709,78.94213934562656
8.55,0.03316850363019892,-0.045951527310581136,79.15464962406621
8.56,0.04652595531837858,-0.028585323227997984,79.70453935915276
8.57,0.11729043252036406,0.0032527175900711304,80.35525513875447
8.58,0.1300475493012098,0.04031440233456803,80.89428668443169
8.59,0.08537262661377747,0.003831591059490569,81.29836644745016
8.6,0.07551712855171233,-0.003693764042962131,81.52251050025694
8.61,-0.012081740010095083,-0.04942476812709777,81.71330439987796
8.62,-0.025989498696664164,-0.06969912225843096,82.00492434401411
8.63,-0.05383003002427457,-0.08185546511623916,82.36402017947967
8.64,-0.0619595652277547,-0.07722447736088366,82.6447819342065
8.65,-0.05963326746183577,-0.0824343385856586,82.56567226850999
8.66,-0.05440535097713624,-0.07722447736088366,82.09489219911995
8.67,-0.0590579465089741,-0.0853287059327558,81.42168445574178
8.68,-0.0590579465089741,-0.07433011001378646,80.77096867614007
8.69,-0.024838856790940823,-0.10616815083185557,80.19858697727706
8.7,0.15613710381576296,0.09879440544758417,79.64869724219051
8.71,0.5941064326703277,0.3408186464715208,79.17714158784267
8.72,0.9549077119780119,0.42071696795305613,78.64974381653258
8.73,0.29361379759523,-0.1461242029234497,78.02152000070733
8.74,-0.04049759229056716,-0.045951527310581136,77.40492995924922
8.75,-0.038746615477509905,-0.04421490690232282,76.87753218793912
8.76,-0.013232381915818424,-0.04768814771883945,76.47345242492065
8.77,-0.021937238072160224,-0.06969912225843096,76.04688069812573
8.78,-0.004527525759476625,-0.06043714674771994,75.58695881814502
8.79,-0.0016259070406960255,-0.05579237629071159,75.18287905512656
8.8,0.007654270068507444,-0.04826702118825889,74.91375107476685
8.81,0.013457507506068642,-0.05231913547419496,74.76794110269877
8.82,0.03954706202062179,-0.04421490690232282,74.46468738419547
8.83,0.032593182677337254,-0.039583919146967315,74.0613832061348
8.84,0.04244868073940239,-0.03321631098335349,73.65730344311635
8.85,0.06043371400494766,-0.020481094656125846,73.38817546275664
8.86,0.08132036598927353,-0.009482498737156515,73.17488959935918
8.87,0.0702892120670128,-0.010640245675995393,73.01744585292396
8.88,0.12019205123914466,0.01600171661895162,72.86077769144656
8.89,0.14860790351961675,0.028736932946179267,72.5800159367197
8.9,0.17239617422272321,0.04899750437585961,72.35587188391293
8.91,0.1950087890656341,0.07795496054848437,72.16507798429193
8.92,0.2686748849864002,0.12021272381610339,72.0417599760003
8.93,0.2866599182519454,0.14338144529453375,72.28839599258355
8.94,0.35684907450106923,0.17058849835724738,73.47736773290467
8.95,0.3736834658608912,0.19548005754228323,76.09186462567865
8.96,0.400348341328306,0.19142794325634716,80.1760950135006
8.97,0.3910681642191025,0.1804293473373778,85.58424892430244
8.98,0.35222149292370364,0.11673948299958675,91.4631829044943
8.99,0.26114568469025395,0.06810032886670107,96.79300273455743
9.0,0.19328282620704906,0.009055234985918358,100.63059710579614
9.01,0.11961673028628299,-0.02626982935032023,102.58274444460127
9.02,0.09815475734909546,-0.0528980089436144,103.15512614346429
9.03,0.06276001177086658,-0.06275264062539769,102.66107852533999
9.04,0.06043371400494766,-0.0702779957278504,101.20220321970135
9.05,0.03839642011489845,-0.07317236307494758,98.9809279005365
9.06,0.04767659722410192,-0.07317236307494758,96.56885868175065
9.07,0.02563930333405271,-0.07259348960552815,94.25761550747997
9.08,0.04129803883367905,-0.08359208552449748,92.20386653920185
9.09,0.03316850363019892,-0.07143574266668927,90.5433391445329
9.1,0.05870775114636265,-0.07548785695262535,89.01776353252268
9.11,0.04710127627124025,-0.07143574266668927,87.7721740902815
9.12,0.04477497850532132,-0.07896109776914197,86.82983836654361
9.13,0.043024001692264065,-0.06912024878901152,86.1791225869419
9.14,0.056381453380443716,-0.07722447736088366,85.64009104126468
9.15,0.04477497850532132,-0.08474983246333635,85.21351931446976
9.16,0.06681227239537053,-0.07201461613610871,84.94439133411005
9.17,0.03434415949039451,-0.07548785695262535,84.79858136204197
9.18,0.05870775114636265,-0.0853287059327558,84.38364340961418
9.19,0.043024001692264065,-0.07259348960552815,83.57548388357725
9.2,0.06043371400494766,-0.07722447736088366,82.66649831302516
9.21,0.032593182677337254,-0.07838222429972254,81.82498863380243
9.22,0.04244868073940239,-0.08822307327985299,81.61247835536278
9.23,0.03782109916203678,-0.08301321205507804,81.55586065344274
9.24,0.04767659722410192,-0.08590757940217524,81.34257479004528
9.25,0.02796560109997164,-0.08822307327985299,81.06258862027624
9.26,0.04710127627124025,-0.09748504879056401,80.89428668443169
9.27,0.04652595531837858,-0.08648645287159468,80.95012880139394
9.28,0.08654828247397306,-0.06564700797249488,81.25338251989724
9.29,0.11438881380158346,-0.05695012322955047,81.79163848061665
9.3,0.1404783683161366,-0.059858273278300504,82.55481407910067
9.31,0.1869042678166262,-0.008324751798317638,83.22802182247884
9.32,0.19095652844113015,-0.013534613023092584,83.50800799224787
9.33,0.16194034125332415,-0.012376866084253707,83.50800799224787
9.34,0.13119819120693313,-0.045951527310581136,83.23888001188816
9.35,0.05290451370880145,-0.07722447736088366,82.92476810397554
9.36,0.04129803883367905,-0.09690617532114457,82.5323221153242
9.37,0.007078949115645773,-0.09806392225998344,82.17322627985865
9.38,0.005903293255450185,-0.11369350593430828,81.89246452513181
9.39,0.0012757116780845739,-0.10906251817895277,81.51087672588982
9.4,0.02331300556813378,-0.11022026511779165,81.02846288213264
9.41,-0.01613400063459902,-0.11774562022024435,80.51269888518969
9.42,-0.012657060962956754,-0.13512560700448034,79.92945899691736
9.43,0.06276001177086658,-0.10211603654591951,79.24461747917205
9.44,0.3052202724703524,0.13005357279623384,78.59390169957034
9.45,0.7687038348866087,0.34139751994094025,77.9765360731544
9.46,0.925891524790206,0.2829175168279241,77.34831225732916
9.47,0.2605703637373923,-0.1768044968026799,76.76507236905682
9.48,-0.0039522048066149545,-0.06159489368655882,76.32764245285257
9.49,-0.0027765489464193667,-0.05810787016838934,76.0693726619022
9.5,0.05405515561452479,-0.07896109776914197,75.85608679850473
9.51,0.06333533272372825,-0.07259348960552815,75.5761006287357
9.52,0.05115353689574419,-0.0853287059327558,75.31783083778532
9.53,0.056381453380443716,-0.06738362838075321,75.14952890194077
9.54,0.06276001177086658,-0.08648645287159468,74.84627518343747
9.55,0.05985839305208599,-0.05870052633946163,74.58800539248709
9.56,0.06623695144250885,-0.07317236307494758,74.46468738419547
9.57,0.0818956869421352,-0.043636033432903384,74.26303529516514
9.58,0.08537262661377747,-0.05870052633946163,73.95978157666184
9.59,0.1039329808321844,-0.030900817105675736,73.65730344311635
9.6,0.12309366995792526,-0.04189941302464507,73.28657383328367
9.61,0.1404783683161366,-0.008903625267737077,72.94996996159458
9.62,0.16426663901924307,-0.0048515109818010075,72.68084198123488
9.63,0.17239617422272321,0.014265096210693304,72.52417381975746
9.64,0.2141444642369027,0.03510454110979309,72.40008022650804
9.65,0.2454869491906276,0.06520596151960388,72.25427025443994
9.66,0.2988417140799295,0.09126905034513146,72.31088795636
9.67,0.31972836606425536,0.11673948299958675,72.79330180011718
9.68,0.37135716809497227,0.15380116774408364,74.04974943176768
9.69,0.39629608070380207,0.1786927269291195,76.90002415171558
9.7,0.41950903045404686,0.1729039922349251,81.5783526172192
9.71,0.40209931814136324,0.15553778815234198,87.37895251667236
9.72,0.3574243954539309,0.09532116463106753,93.29201223500782
9.73,0.2680995640335385,0.05710173294773175,98.25187804019608
9.74,0.1950087890656341,-0.02221771506438416,101.6404087208634
9.75,0.12191801409772968,-0.03668955179987012,103.41262034945686
9.76,0.06333533272372825,-0.08938082021869186,103.68252391477438
9.77,0.05290451370880145,-0.06101602021713938,102.79603030799875
9.78,0.030266884911418324,-0.1125357589954694,101.14636110273909
9.79,0.02969156395855665,-0.08127659164681972,98.57684813751803
9.8,0.019836065896491513,-0.11137801205663052,95.97398501911118
9.81,0.026789945239776052,-0.08880194674927243,93.64024988106404
9.82,0.02216236366241044,-0.11079913858721109,91.53065879582368
9.83,0.03724577820917511,-0.06738362838075321,89.8251474736018
9.84,0.032593182677337254,-0.08880194674927243,88.5686998419513
9.85,0.02969156395855665,-0.08590757940217524,87.5030461099218
9.86,0.02969156395855665,-0.09864279572940288,86.45910875671093
9.87,0.04129803883367905,-0.06622588144191432,85.65172481563182
9.88,0.03491948044325618,-0.10037941613766119,85.12432704432173
9.89,0.02506398238119104,-0.07606673042204477,84.82107332581843
9.9,0.026214624286914383,-0.09922166919882232,84.55194534545872
9.91,0.02969156395855665,-0.08301321205507804,84.22619966317896
9.92,0.03316850363019892,-0.08069771817740029,83.69880189186887
9.93,0.021562028755076523,-0.06622588144191432,82.87978417642262
9.94,0.008229591021369114,-0.10558927736243615,82.06076646097637
9.95,-0.003376883853753284,-0.06969912225843096,81.32008282626882
9.96,0.003602009444003503,-0.10269491001533895,80.73684293799647
9.97,0.02216236366241044,-0.07317236307494758,80.50106511082255
9.98,0.0041773303968651735,-0.09980054266824176,80.60266674029553
9.99,0.02331300556813378,-0.0528980089436144,80.87179472065523
