time_s,ECG1,ECG2,NIBP
0.0,0.0972542372846244,0.102514051411347,107.9217060338511
0.01,0.19872566097109254,0.10598910400156215,114.26387357792392
0.02,0.14945116722323415,0.1343687001549859,121.45988308241787
0.03,0.25210636253127244,0.1274185949745556,127.79052779301674
0.04,0.19817076802348152,0.14768973508414399,132.3028693814232
0.05,0.27585578068902405,0.1227851915209354,134.87361352946579
0.06,0.19757888221269646,0.12683941954285308,135.68251643933846
0.07,0.2178879640952597,0.07312089825244383,134.85172014586524
0.08,0.07346782626369877,0.0586415124598807,132.80872177093045
0.09,0.06303583884861164,-0.013176241071232454,130.18151573886541
0.1,-0.06458953910192249,-0.010280363912719827,127.73406590899428
0.11,-0.038472577701030575,-0.06298532819764964,125.61271226643649
0.12,-0.12429602026486801,-0.04966429326849156,123.7609929271696
0.13,-0.06340576748035232,-0.07978141571702288,122.09940034022318
0.14,-0.13531989349074022,-0.0641436790610547,120.52768585437374
0.15,-0.06458953910192249,-0.07746471399021278,119.04584946962126
0.16,-0.13358122892155905,-0.06356450362935216,117.91200265578266
0.17,-0.06225898872195621,-0.08151894201213046,117.08120636230946
0.18,-0.12954900683558565,-0.061826977334244596,116.58802908962356
0.19,-0.055304330445231455,-0.07630636312680773,116.43016627103019
0.2,-0.1248879060756531,-0.05487687215381429,116.28497856925817
0.21,-0.04542723597775533,-0.0664603807878648,116.1605319677393
0.22,-0.11678646904053223,-0.044451714383168826,115.64430902810547
0.23,-0.04487234303014431,-0.061247801902542066,114.99326893682618
0.24,-0.11212536828059969,-0.05082264413189661,114.6118631488378
0.25,-0.04135802102860787,-0.058931100175731964,114.38716789609539
0.26,-0.10923992495302239,-0.035764082907630945,113.96082305755851
0.27,-0.03906446351181566,-0.06298532819764964,113.01825527938782
0.28,-0.10690937457305612,-0.042135012656358724,111.70465226335529
0.29,-0.04542723597775533,-0.06240615276594712,110.55928261604272
0.3,-0.1097948179006334,-0.034605732044225894,109.96470440878589
0.31,-0.057042995014412644,-0.06356450362935216,109.84141009061442
0.32,-0.12895712102480056,-0.04908511783678903,110.02116629280835
0.33,-0.06806686824028486,-0.07225213510489005,110.44751113134521
0.34,-0.1260346848340492,-0.04561006524657388,111.0201959550015
0.35,-0.07383775489543945,-0.07341048596829511,111.59172849531039
0.36,-0.13824232968149158,-0.051980994995301656,112.25429142006364
0.37,-0.07328286194782843,-0.06993543337807995,112.92837717829084
0.38,-0.14345832338903516,-0.05835192474402944,113.41118390085018
0.39,-0.07909074146615709,-0.07398966139999763,113.64624970371915
0.4,-0.14171965881985396,-0.05429769672211176,113.66929537066709
0.41,-0.07790696984458692,-0.06298532819764964,113.46649350152522
0.42,-0.1393891084398877,-0.05835192474402944,113.00673244591384
0.43,-0.0628508745327413,-0.058931100175731964,112.42252478878359
0.44,-0.08545351393209676,-0.01375541650293498,111.88440846554921
0.45,0.0038472577701030575,-0.03170985488571327,111.23336837426993
0.46,-0.06340576748035232,0.01578253051389382,110.50397301536766
0.47,0.046204086104410756,0.00535737274324836,109.76305482299142
0.48,-0.049496450926902795,0.003619846448140784,109.0889690647642
0.49,-0.025710039905977162,-0.017809644524852657,108.52780707458189
0.5,-0.12141057693729072,-0.016651293661447606,107.98853846800012
0.51,-0.07790696984458692,-0.06240615276594712,107.37206687714274
0.52,-0.15155976042415603,-0.07225213510489005,106.71987450251608
0.53,-0.0941468367780027,-0.08209811744383298,106.22669722983018
0.54,-0.14867431709657872,-0.07398966139999763,105.92364670946478
0.55,-0.09706927296875406,-0.09947338039490874,105.71047429019634
0.56,-0.21884977853778545,-0.07341048596829511,105.65401240617389
0.57,-0.2994572273940793,0.013465828787083717,105.59755052215144
0.58,0.13261941447903328,0.20155305023247885,105.51919525452846
0.59,1.4978780227811817,0.04705800382583019,105.40742376983094
0.6,1.5170033330421748,0.09672229709432176,105.13778946654006
0.61,0.44465421535229566,-0.1782412391064522,104.75638367855167
0.62,-0.2658307147688516,-0.31188596997180995,104.45333315818627
0.63,-0.06111220996356011,-0.18461216885517998,104.26205412251838
0.64,-0.08371484936291557,-0.07341048596829511,104.03735886977597
0.65,-0.05356566587605026,-0.07283131053659257,103.81266361703356
0.66,-0.1220024627480758,-0.05835192474402944,103.44278066251914
0.67,-0.06862176118789588,-0.0687770825146749,102.95997393995982
0.68,-0.09821605172715017,-0.031130679454010744,102.7018624701429
0.69,-0.03906446351181566,-0.05371852129040924,102.57856815197142
0.7,-0.08833895725967406,-0.029972328590605692,102.39881194977751
0.71,-0.020494046198433594,-0.027076451432093064,102.15222331343456
0.72,-0.07502152651700962,-0.02765562686379559,101.89295956027024
0.73,-0.005992843834198993,-0.02649727600039054,101.6463709239273
0.74,-0.06573631786031858,-0.02418057427358044,101.47813755520734
0.75,0.004439143580888144,-0.015492942798042557,101.34332040356189
0.76,-0.04194990683939295,-0.005067785027397098,101.152041367894
0.77,0.03577209868932362,0.011149127060273614,100.8155746304541
0.78,0.002700479011706954,0.03431614432837463,100.64734126173414
0.79,0.07461460502209487,0.03779119691858979,101.02874704972253
0.8,0.04446542153522957,0.0632749159135009,102.588938702098
0.81,0.12274232001155716,0.060379038754988276,106.19328101275566
0.82,0.10883300345810765,0.09672229709432176,112.14251993536612
0.83,0.1888855593667905,0.09614312166261922,119.07926568669578
0.84,0.15869938301675113,0.12336436695263792,125.46752456466447
0.85,0.22946673026874292,0.10946415659177731,130.49608909270478
0.86,0.19931754678187763,0.11931013893072025,133.5496399633067
0.87,0.2352746097870716,0.08745549018708135,134.72842582769377
0.88,0.13783540818657686,0.07717512627436152,134.29055815568293
0.89,0.12218742706394614,0.01056995162857109,133.15671134184433
0.9,0.005031029391673229,-0.02418057427358044,131.68639779056582
0.91,-0.014131273732493923,-0.05429769672211176,129.59846036508256
0.92,-0.10228526667629763,-0.06703955621956732,127.15101053521143
0.93,-0.08660029269049287,-0.08846904719256077,124.54685017009432
0.94,-0.14867431709657872,-0.08731069632915571,122.12129372382373
0.95,-0.09995471629633136,-0.10642348557533905,120.13475723291138
0.96,-0.13591177930152532,-0.09252327521447844,118.49621031291292
0.97,-0.09995471629633136,-0.09541915237299108,117.17108446340643
0.98,-0.15041298166575992,-0.09136492435107339,116.11559291719081
0.99,-0.09588550134718389,-0.0983150295315037,115.39772039176252
1.0,-0.13824232968149158,-0.08557317003404813,115.10619270487109
1.01,-0.07909074146615709,-0.08904822262426329,115.07162420444918
1.02,-0.13069578559398176,-0.08441481917064309,115.11656325499766
1.03,-0.078498855655372,-0.07746471399021278,115.18454797249407
1.04,-0.1260346848340492,-0.07978141571702288,115.24100985651653
1.05,-0.06111220996356011,-0.061826977334244596,115.15113175541957
1.06,-0.11619458322974716,-0.06588120535616226,114.63490881578574
1.07,-0.07616830527540572,-0.0780438894219153,113.67966592079367
1.08,-0.11793324779892835,-0.06298532819764964,112.44557045573153
1.09,-0.08371484936291557,-0.08615234546575067,111.28867797494499
1.1,-0.13010389978319667,-0.0641436790610547,110.33458736330032
1.11,-0.08893084307045913,-0.0826772928755355,109.76305482299142
1.12,-0.13069578559398176,-0.07456883683170015,109.78494820659196
1.13,-0.09533060839957287,-0.07978141571702288,110.16635399458036
1.14,-0.12721845645561938,-0.07920224028532036,110.67220638408762
1.15,-0.08486162812131168,-0.08093976658042794,111.23336837426993
1.16,-0.12547979188643818,-0.0780438894219153,111.87288563207524
1.17,-0.09355495096721762,-0.08325646830723804,112.55734194042903
1.18,-0.13417311473234414,-0.06819790708297237,113.0966105470108
1.19,-0.09995471629633136,-0.0826772928755355,113.45612295139865
1.2,-0.14401321633664618,-0.0959983278046936,113.83752873938704
1.21,-0.09588550134718389,-0.08325646830723804,114.07259454225603
1.22,-0.12081869112650563,-0.06588120535616226,113.91588400701004
1.23,-0.059336552531204845,-0.06472285449275722,113.41118390085018
1.24,-0.0668830966187147,-0.05082264413189661,112.79356002664541
1.25,-0.04716590054693652,-0.025918100568688013,112.06416466774313
1.26,-0.009470172972561372,-0.011438714776124877,111.33361702549347
1.27,-0.0019236288850515287,-0.023022223410175388,110.70562260116213
1.28,-0.07095231156786215,-0.02128469711506781,110.00964345933437
1.29,-0.0639976532911374,-0.03170985488571327,109.19036999933513
1.3,-0.13765044387070652,-0.07688553855851026,108.50476140763395
1.31,-0.12141057693729072,-0.11163606446066178,107.91018320037712
1.32,-0.15041298166575992,-0.09078574891937087,107.37206687714274
1.33,-0.13417311473234414,-0.0959983278046936,106.88926015458343
1.34,-0.1405358871982838,-0.08846904719256077,106.50670208324763
1.35,-0.14401321633664618,-0.08731069632915571,106.23822006330414
1.36,-0.40152053689133255,-0.007963662185909725,105.92364670946478
1.37,-0.07154419737864724,0.10309322684304953,105.71047429019634
1.38,1.2131069620672073,0.02041593396751402,105.50767242105448
1.39,1.528619092078832,0.06443326677690596,105.36248471928246
1.4,0.7131854091328543,-0.05429769672211176,105.30602283526001
1.41,-0.12954900683558565,-0.3865996006614357,105.23919040111099
1.42,-0.15677575413169959,-0.21400532201408315,105.17120568361457
1.43,-0.04542723597775533,-0.09483997694128854,105.03638853196912
1.44,-0.1103867037114185,-0.071093784241485,104.76675422867824
1.45,-0.08371484936291557,-0.07862306485361784,104.41876465776436
1.46,-0.1097948179006334,-0.060089451039137015,104.12723697087293
1.47,-0.0668830966187147,-0.04734759154168146,103.88064833452998
1.48,-0.08545351393209676,-0.04271418808806125,103.56607498069062
1.49,-0.05645110920362755,-0.05024346870019408,103.39784161197066
1.5,-0.078498855655372,-0.03808078463444105,103.29644067739973
1.51,-0.04542723597775533,-0.029393153158903167,103.1166844752058
1.52,-0.06862176118789588,-0.03286820574911832,102.95997393995982
1.53,-0.020494046198433594,-0.02649727600039054,102.71338530361687
1.54,-0.04487234303014431,-0.02012634625166276,102.2858881817326
1.55,-0.0001849643158703393,-0.002751083300586996,101.7927109090467
1.56,-0.01294750211092375,0.003619846448140784,101.41130512105832
1.57,0.03111099792939107,0.020995109399216547,101.33179757008793
1.58,0.027078775843417675,0.035474495191779684,101.48966038868132
1.59,0.0867852570063632,0.06443326677690596,102.10728426288608
1.6,0.09899290185380559,0.08224291130175862,103.63290741483964
1.61,0.14712061684326788,0.09961817425283438,106.5965801843446
1.62,0.14945116722323415,0.10077652511623943,111.72654564695583
1.63,0.19757888221269646,0.11931013893072025,118.238098843096
1.64,0.18366956565924691,0.11931013893072025,124.46734261912393
1.65,0.2358664955978567,0.1390021036086061,129.3507194453922
1.66,0.20860275543856865,0.11815178806731519,132.32591504837114
1.67,0.19236288850515287,0.0909305427772965,133.30189904361634
1.68,0.10942488926889272,0.036632846055184735,132.88707703855346
1.69,0.07868381997124234,-0.002751083300586996,131.42713403740152
1.7,-0.008878287161776287,-0.04676841610997893,129.1260241926498
1.71,-0.009470172972561372,-0.043293363519763775,126.69009719625264
1.72,-0.07731508403380183,-0.07978141571702288,124.65862165479182
1.73,-0.06980553280946605,-0.08325646830723804,122.72739476455453
1.74,-0.09706927296875406,-0.08904822262426329,120.81921354126517
1.75,-0.07442964070622453,-0.07746471399021278,118.77621516633037
1.76,-0.0930000580196066,-0.08383564373894056,116.90145016011554
1.77,-0.078498855655372,-0.0757271876951052,115.26290324011707
1.78,-0.08778406431206304,-0.08441481917064309,114.00576210810699
1.79,-0.05818977377280875,-0.07167295967318753,113.2878895826787
1.8,-0.07731508403380183,-0.0803605911487254,112.91685434481688
1.81,-0.05238189425448009,-0.071093784241485,112.86039246079443
1.82,-0.06573631786031858,-0.06761873165126984,112.79356002664541
1.83,-0.04716590054693652,-0.052560170427004185,112.65874287499996
1.84,-0.06052032415277502,-0.05313934585870671,112.37758573823511
1.85,-0.04601912178854042,-0.05487687215381429,111.79453036445224
1.86,-0.06806686824028486,-0.07051460880978247,110.95221123750508
1.87,-0.055859223392842466,-0.06472285449275722,110.06610534335682
1.88,-0.07269097613704334,-0.0826772928755355,109.21226338293567
1.89,-0.05238189425448009,-0.061247801902542066,108.66262422622734
1.9,-0.06862176118789588,-0.07920224028532036,108.81933476147331
1.91,-0.0628508745327413,-0.0803605911487254,109.40354241860358
1.92,-0.06980553280946605,-0.07167295967318753,109.84141009061442
1.93,-0.05645110920362755,-0.06530202992445974,110.31269397969977
1.94,-0.07442964070622453,-0.08093976658042794,111.00867312152752
1.95,-0.06052032415277502,-0.06935625794637743,111.90630184914976
1.96,-0.06862176118789588,-0.0757271876951052,112.79356002664541
1.97,-0.06111220996356011,-0.06819790708297237,113.5114325520737
1.98,-0.07676019108619081,-0.07862306485361784,113.90436117353606
1.99,-0.04542723597775533,-0.05661439844892186,114.02765549170753
2.0,-0.005992843834198993,-0.051980994995301656,113.7027115877416
2.01,-0.0001849643158703393,-0.04734759154168146,113.2878895826787
2.02,0.02008712470351885,-0.007963662185909725,112.81545341024595
2.03,0.05082819400116924,-0.018388819956555183,112.1874589859146
2.04,0.004439143580888144,-0.02475974970528296,111.55831227823587
2.05,-0.01642483124928613,-0.02649727600039054,110.87385596988209
2.06,-0.05878165958359383,-0.04966429326849156,110.21129304512884
2.07,-0.08023752022455319,-0.08557317003404813,109.48189768622656
2.08,-0.09936283048554627,-0.10816101187044663,108.77439571092484
2.09,-0.09007762182885524,-0.08151894201213046,108.04500035202257
2.1,-0.10169338086551255,-0.10005255582661127,107.41585364434383
2.11,-0.09588550134718389,-0.09078574891937087,106.80975260361303
2.12,-0.2455216328862884,-0.06588120535616226,106.26011344690468
2.13,-0.25887605649212686,0.036053670623482206,105.94554009306532
2.14,0.48175805711588576,0.16332747174011217,105.68742862324841
2.15,1.5489281739613954,0.020995109399216547,105.51919525452846
2.16,1.4108708085957742,0.06906667023052616,105.33943905233453
2.17,0.07809193416045725,-0.3564824782129044,105.2726066181855
2.18,-0.20260991160436967,-0.289877303567114,105.41779431995752
2.19,-0.04601912178854042,-0.14928246752132593,105.47425620397996
2.2,-0.05471244463444636,-0.10121090669001633,105.26108378471153
2.21,-0.0628508745327413,-0.07456883683170015,104.90157138032369
2.22,-0.05471244463444636,-0.0664603807878648,104.5535818094098
2.23,-0.03732579894263447,-0.044451714383168826,104.3288865566674
2.24,-0.03732579894263447,-0.05661439844892186,104.04888170324993
2.25,-0.02108593200921868,-0.02418057427358044,103.85760266758204
2.26,-0.023379489526010887,-0.044451714383168826,103.8357092839815
2.27,-0.01934726744003749,-0.02649727600039054,103.82418645050754
2.28,-0.011800723352527647,-0.0392391354978461,103.7573540163585
2.29,0.004439143580888144,-0.01375541650293498,103.57759781416459
2.3,0.009655137288431712,-0.020705521683365286,103.22960824325071
2.31,0.038657542016900914,0.01578253051389382,102.76869490429192
2.32,0.04213487115526329,0.0070948990383559365,102.34235006575506
2.33,0.05896662389946417,0.03373696889667211,102.11765481301265
2.34,0.07054539007294741,0.023890986557729175,102.29741101520658
2.35,0.09259313652469185,0.05748316159647565,103.0832682581313
2.36,0.11811821211479868,0.060958214186690805,105.05943419891706
2.37,0.13261941447903328,0.07601677541095647,108.92073569604425
2.38,0.1743843570025559,0.08745549018708135,114.65680219938628
2.39,0.19350966726354898,0.11525591090880256,121.17872594565303
2.4,0.23179728064870922,0.11815178806731519,127.12796486826349
2.41,0.2486290333929101,0.14131880533541621,131.48359592142396
2.42,0.2613545783247894,0.11873096349901772,134.189157221112
2.43,0.22365885075041428,0.10656827943326469,135.07641539860765
2.44,0.17205380662258962,0.053428933574557975,134.54866962549985
2.45,0.08970769319711457,0.018099232240703922,132.73036650330747
2.46,0.02127089632508902,-0.0392391354978461,130.3048100570369
2.47,-0.0361420273210643,-0.04618924067827641,128.2618116821021
2.48,-0.06862176118789588,-0.07920224028532036,126.16350370649224
2.49,-0.08312296355213049,-0.06298532819764964,124.28873870027739
2.5,-0.08197618479373438,-0.0826772928755355,122.46928329473761
2.51,-0.09936283048554627,-0.07167295967318753,120.85378204168708
2.52,-0.09126139345042542,-0.09194409978277591,119.60701145980359
2.53,-0.09880793753793525,-0.07398966139999763,118.57456558053592
2.54,-0.0941468367780027,-0.09136492435107339,117.84517022163364
2.55,-0.09762416591636508,-0.06761873165126984,117.42919593322334
2.56,-0.078498855655372,-0.08209811744383298,117.26096256450339
2.57,-0.08893084307045913,-0.060668626470839544,117.11577486273137
2.58,-0.07328286194782843,-0.0757271876951052,116.83461772596651
2.59,-0.08082940603533828,-0.05487687215381429,116.74473962486955
2.6,-0.07209909032625826,-0.07514801226340267,116.86803394304103
2.61,-0.08197618479373438,-0.05082264413189661,116.801201508892
2.62,-0.06573631786031858,-0.071093784241485,116.22851668523572
2.63,-0.07676019108619081,-0.04792676697338398,115.18454797249407
2.64,-0.0651444320495335,-0.07688553855851026,113.93892967395797
2.65,-0.08430673517370066,-0.060089451039137015,112.79356002664541
2.66,-0.07328286194782843,-0.07630636312680773,112.10910371829162
2.67,-0.09066950763964032,-0.05835192474402944,111.72654564695583
2.68,-0.07616830527540572,-0.08731069632915571,111.45806362701234
2.69,-0.08660029269049287,-0.05777274931232691,111.52489606116136
2.7,-0.0651444320495335,-0.07630636312680773,112.06416466774313
2.71,-0.09126139345042542,-0.06240615276594712,112.85002191066786
2.72,-0.06980553280946605,-0.07862306485361784,113.55637160262219
2.73,-0.08778406431206304,-0.05429769672211176,114.12905642627847
2.74,-0.06573631786031858,-0.08325646830723804,114.48856883066632
2.75,-0.10457882419308984,-0.0664603807878648,114.7236346335353
2.76,-0.07964563441376811,-0.08383564373894056,115.01631460377412
2.77,-0.10864803914223731,-0.071093784241485,115.1396089219456
2.78,-0.08371484936291557,-0.09194409978277591,114.9483298862777
2.79,-0.10631748876227103,-0.071093784241485,114.4205841131699
2.8,-0.08082940603533828,-0.08557317003404813,113.83752873938704
2.81,-0.09588550134718389,-0.06298532819764964,113.33167634987979
2.82,-0.055304330445231455,-0.06935625794637743,112.83849907719389
2.83,-0.04135802102860787,-0.03228903031741579,112.14251993536612
2.84,-0.014131273732493923,-0.04561006524657388,111.31172364189293
2.85,-0.0019236288850515287,0.013465828787083717,110.53738923244218
2.86,0.04387353572444448,-0.010280363912719827,109.86330347421496
2.87,-0.03266469818270192,-0.00043438157377689407,109.23530904988363
2.88,-0.026893811527547336,-0.023022223410175388,108.68451760982788
2.89,-0.09880793753793525,-0.030551504022308218,108.19134033714198
2.9,-0.08371484936291557,-0.09426080150958602,107.8433507662281
2.91,-0.11330913990216986,-0.0687770825146749,107.59560984653776
2.92,-0.08486162812131168,-0.1006317312583138,107.3490212101948
2.93,-0.12141057693729072,-0.09136492435107339,107.21420405854937
2.94,-0.08893084307045913,-0.10468595928023147,107.22572689202333
2.95,-0.28033191713308625,-0.03170985488571327,107.21420405854937
2.96,-0.2310204305220538,0.04763717925753272,107.0125544727549
2.97,0.6064609988756685,0.181861085554593,106.68645828544156
2.98,1.5489281739613954,0.018099232240703922,106.36151438147562
2.99,1.309954277856917,0.07254172282074131,106.01352481056175
3.0,0.00155370025331085,-0.4213501265635873,105.83376860836782
3.01,-0.21999655729618156,-0.25049337421134227,105.67590578977443
3.02,-0.0321098052350909,-0.15044081838473097,105.31754566873398
3.03,-0.07676019108619081,-0.060089451039137015,104.95803326434613
3.04,-0.04601912178854042,-0.061826977334244596,104.77827706215221
3.05,-0.0930000580196066,-0.04792676697338398,104.80132272910015
3.06,-0.05412055882366128,-0.06472285449275722,104.72181517812976
3.07,-0.08545351393209676,-0.0392391354978461,104.41876465776436
3.08,-0.0361420273210643,-0.05371852129040924,103.94748076867901
3.09,-0.06806686824028486,-0.022443047978472862,103.58796836429116
3.1,-0.015278052490890027,-0.03865996006614358,103.44278066251914
3.11,-0.057042995014412644,-0.016651293661447606,103.36442539489614
3.12,0.002108593200921868,-0.027076451432093064,103.15125297562771
3.13,-0.025118154095192077,0.008253249901760988,102.87009583886285
3.14,0.03344154830935735,-0.009122013049314776,102.61198436904594
3.15,-0.013539387921708838,0.0030406710164382587,102.48869005087447
3.16,0.05256685857035043,0.00535737274324836,102.50021288434844
3.17,0.03344154830935735,0.04763717925753272,102.61198436904594
3.18,0.0972542372846244,0.035474495191779684,103.44278066251914
3.19,0.08504659243718202,0.08007100343287414,105.75541334074482
3.2,0.17264569243337471,0.08224291130175862,110.3795264138488
3.21,0.1465287310324828,0.11409756004539752,116.83461772596651
3.22,0.23816005311464888,0.11699343720391014,123.59275955844964
3.23,0.20686409086938748,0.13494787558668844,129.28388701124317
3.24,0.28747153972568135,0.13263117385987833,133.25695999306788
3.25,0.22365885075041428,0.12915612126966317,135.37946591897307
3.26,0.2683462294646883,0.102514051411347,135.68251643933846
3.27,0.14771250265405297,0.07022502109393121,134.70538016074585
3.28,0.13202752866824818,0.0013031447213306823,132.752259886908
3.29,0.006177808150069333,-0.009701188481017302,130.23797762288785
3.3,-0.007731508403380183,-0.06993543337807995,127.85851251051315
3.31,-0.08778406431206304,-0.05777274931232691,125.8039913021044
3.32,-0.0506432296852989,-0.08962739805596581,123.91770346241557
3.33,-0.11330913990216986,-0.07456883683170015,122.1662327743722
3.34,-0.07731508403380183,-0.11337359075576936,120.70744205656767
3.35,-0.13302633597394803,-0.09252327521447844,119.40536187400912
3.36,-0.07036042575707707,-0.10236925755342137,118.48468747943895
3.37,-0.13184256435237784,-0.07862306485361784,117.72187590346216
3.38,-0.06573631786031858,-0.0959983278046936,117.22754634742887
3.39,-0.13302633597394803,-0.07341048596829511,117.09272919578343
3.4,-0.07383775489543945,-0.10236925755342137,117.1042520292574
3.41,-0.13417311473234414,-0.06240615276594712,117.08120636230946
3.42,-0.06806686824028486,-0.08788987176085823,117.28400823145132
3.43,-0.1277733494032304,-0.060668626470839544,117.64236835249177
3.44,-0.07328286194782843,-0.08962739805596581,117.54211970126825
3.45,-0.12721845645561938,-0.06530202992445974,116.67790719072053
3.46,-0.06747498242949977,-0.08788987176085823,115.25138040664311
3.47,-0.13069578559398176,-0.06356450362935216,113.69118875426763
3.48,-0.0668830966187147,-0.0826772928755355,112.51240288988055
3.49,-0.14519698795821634,-0.07978141571702288,111.98465711677275
3.5,-0.07790696984458692,-0.09715667866809864,111.76111414737774
3.51,-0.14460510214743127,-0.06703955621956732,111.90630184914976
3.52,-0.07731508403380183,-0.09483997694128854,112.2658142535376
3.53,-0.14286643757825007,-0.06935625794637743,112.78203719317143
3.54,-0.06573631786031858,-0.07630636312680773,113.42155445097674
3.55,-0.14752753833818263,-0.0757271876951052,114.10716304267793
3.56,-0.07731508403380183,-0.08499399460234561,114.70174124993476
3.57,-0.1527435320457262,-0.07051460880978247,115.18454797249407
3.58,-0.08660029269049287,-0.0983150295315037,115.47607565938551
3.59,-0.1544821966149074,-0.07514801226340267,115.53253754340795
3.6,-0.07328286194782843,-0.08383564373894056,115.29631945719159
3.61,-0.1527435320457262,-0.07398966139999763,115.04973082084864
3.62,-0.08256807060451947,-0.10005255582661127,114.84808123505417
3.63,-0.1556289753733035,-0.0664603807878648,114.4205841131699
3.64,-0.06921364699868096,-0.08673152089745319,113.64624970371915
3.65,-0.1538903108041223,-0.06819790708297237,112.71520475902241
3.66,-0.0639976532911374,-0.07283131053659257,111.89593129902318
3.67,-0.1220024627480758,-0.04618924067827641,111.17690649024748
3.68,-0.010653944594131545,-0.051401819563599134,110.53738923244218
3.69,-0.09880793753793525,0.007674074470058462,109.8863491411629
3.7,0.03980432077529702,-0.025338925136985487,109.0555528476897
3.71,-0.0668830966187147,-0.001592732437181945,108.52780707458189
3.72,-0.03961935645942668,-0.04039748636125115,108.41603558988439
3.73,-0.13069578559398176,-0.01723046909315013,108.54970045818243
3.74,-0.07731508403380183,-0.0803605911487254,108.41603558988439
3.75,-0.1800072722050142,-0.08904822262426329,107.98853846800012
3.76,-0.0947387225887878,-0.09252327521447844,107.55067079598928
3.77,-0.18230082972180642,-0.08383564373894056,107.2026812250754
3.78,-0.11097858952220357,-0.11047771359725674,107.04597068982942
3.79,-0.22868988014208752,-0.0826772928755355,106.87773732110945
3.8,-0.35631525809262166,-0.025918100568688013,106.73139733599004
3.81,-0.08256807060451947,0.14131880533541621,106.47328586617313
3.82,1.3244554802211517,0.045899652962425146,106.26011344690468
3.83,1.4491584219809344,0.0932472445041066,106.23822006330414
3.84,0.6714204666093316,-0.07225213510489005,106.09188007818473
3.85,-0.22118032891775175,-0.3645909342567398,105.63211902257335
3.86,-0.0930000580196066,-0.21574284830919074,105.09285041599158
3.87,-0.11330913990216986,-0.09078574891937087,104.71144462800319
3.88,-0.06340576748035232,-0.09252327521447844,104.54321125928323
3.89,-0.14345832338903516,-0.04966429326849156,104.44181032471229
3.9,-0.06052032415277502,-0.0687770825146749,104.30699317306686
3.91,-0.1365036651123104,-0.0392391354978461,104.10534358727239
3.92,-0.05645110920362755,-0.07167295967318753,103.88064833452998
3.93,-0.14171965881985396,-0.0392391354978461,103.68936929886209
3.94,-0.04309668559778906,-0.05603522301721934,103.54418159709007
3.95,-0.12255735569568682,-0.023601398841877914,103.36442539489614
3.96,-0.036733913131849386,-0.043872538951466304,103.22960824325071
3.97,-0.10402393124547882,-0.01723046909315013,102.98186732356037
3.98,-0.00484606507580289,-0.025338925136985487,102.60046153557197
3.99,-0.08197618479373438,0.006515723606653412,102.2075329141096
4.0,0.023564453841881227,-0.005067785027397098,101.89295956027024
4.01,-0.03384846980427209,0.03952872321369736,101.74777185849823
4.02,0.06359073179622265,0.023890986557729175,101.91600522721818
4.03,0.0009618144425257644,0.06732914393541858,102.74680152069138
4.04,0.11697143335640257,0.0679083193671211,105.06980474904364
4.05,0.06244395303782655,0.10772663029666973,109.1673243323872
4.06,0.18019223652088454,0.09035136734559397,115.34125850774006
4.07,0.1012864593705978,0.12452271781604297,122.12129372382373
4.08,0.21844285704287073,0.11409756004539752,127.95876116173669
4.09,0.1436432877049055,0.12046848979412529,132.1910978967257
4.1,0.2329440594071053,0.09440559536751165,134.55904017562642
4.11,0.09492368690465813,0.08977219191389145,135.26654215092816
4.12,0.13609674361739565,0.03952872321369736,134.50373057495136
4.13,-0.03906446351181566,0.0030406710164382587,132.56098085124012
4.14,-0.0036622934542327183,-0.043293363519763775,129.9234042690485
4.15,-0.14982109585497483,-0.05661439844892186,127.53241632319981
4.16,-0.08952272888124423,-0.08615234546575067,125.25319986204865
4.17,-0.1857781588601688,-0.06761873165126984,123.05349095186786
4.18,-0.11793324779892835,-0.11105688902895926,121.05543162748155
4.19,-0.20375669036276578,-0.0780438894219153,119.07926568669578
4.2,-0.10631748876227103,-0.09483997694128854,117.35084066560034
4.21,-0.19099415256771235,-0.06530202992445974,115.98192804889277
4.22,-0.10054660210711644,-0.09426080150958602,115.00479177030016
4.23,-0.18984737380931627,-0.06993543337807995,114.48856883066632
4.24,-0.10284015962390865,-0.0983150295315037,114.27539641139788
4.25,-0.19798580370761118,-0.06819790708297237,114.25235074444994
4.26,-0.08430673517370066,-0.07398966139999763,114.14057925975244
4.27,-0.1817459367741954,-0.060089451039137015,114.08411737572999
4.28,-0.07383775489543945,-0.07630636312680773,113.96082305755851
4.29,-0.18751682342934997,-0.06240615276594712,113.50106200194713
4.3,-0.08545351393209676,-0.07398966139999763,112.55734194042903
4.31,-0.1828927155325915,-0.05313934585870671,111.50300267756081
4.32,-0.09647738715796898,-0.08846904719256077,110.58232828299066
4.33,-0.17941538639422913,-0.060668626470839544,110.02116629280835
4.34,-0.08545351393209676,-0.09194409978277591,109.96470440878589
4.35,-0.17941538639422913,-0.05024346870019408,110.3795264138488
4.36,-0.08833895725967406,-0.09715667866809864,111.31172364189293
4.37,-0.1857781588601688,-0.06819790708297237,112.13099710189216
4.38,-0.08430673517370066,-0.09252327521447844,112.80508286011937
4.39,-0.18348460134337657,-0.06298532819764964,113.2878895826787
4.4,-0.09706927296875406,-0.0959983278046936,113.72460497134215
4.41,-0.18696193048173895,-0.0641436790610547,114.29728979499843
4.42,-0.09240817220882151,-0.09773585409980116,114.86997461865471
4.43,-0.18348460134337657,-0.06472285449275722,115.26290324011707
4.44,-0.07790696984458692,-0.08383564373894056,115.22948702304257
4.45,-0.18751682342934997,-0.071093784241485,114.93795933615114
4.46,-0.07676019108619081,-0.1006317312583138,114.37564506262142
4.47,-0.15795952575326977,-0.05024346870019408,113.67966592079367
4.48,-0.015278052490890027,-0.061826977334244596,112.91685434481688
4.49,-0.11097858952220357,-0.029393153158903167,112.07453521786971
4.5,0.024748225463451397,-0.01896799538825771,111.22184554079597
4.51,-0.038472577701030575,0.008253249901760988,110.31269397969977
4.52,-0.0036622934542327183,-0.03981831092954863,109.61671483787201
4.53,-0.1266265706448343,-0.01896799538825771,109.0889690647642
4.54,-0.06111220996356011,-0.043293363519763775,108.57274612513037
4.55,-0.1840394942909876,-0.07398966139999763,108.10146223604502
4.56,-0.09007762182885524,-0.10179008212171885,107.63017834695967
4.57,-0.18348460134337657,-0.07630636312680773,107.2026812250754
4.58,-0.08952272888124423,-0.11337359075576936,106.89963070470999
4.59,-0.17593805725586675,-0.0780438894219153,106.82127543708701
4.6,-0.24145241793714092,-0.05313934585870671,106.78785922001249
4.61,-0.3296064108809446,0.03431614432837463,106.7095039523895
4.62,0.6493727201575872,0.14595220878903642,106.41682398215067
4.63,1.4885928141244906,0.03257861803326706,106.2935296639792
4.64,1.3256392518427218,0.03837037235029231,106.32809816440111
4.65,-0.06458953910192249,-0.3900746532516509,106.33846871452768
4.66,-0.15041298166575992,-0.2748187423428483,106.24859061343072
4.67,-0.11852513360971342,-0.13132802913854766,106.0688344112368
4.68,-0.01934726744003749,-0.09657750323639612,105.81072294141988
4.69,-0.13184256435237784,-0.051980994995301656,105.50767242105448
4.7,-0.0361420273210643,-0.0803605911487254,105.17120568361457
4.71,-0.12081869112650563,-0.03808078463444105,104.83473894617467
4.72,-0.0216408249568297,-0.060089451039137015,104.44181032471229
4.73,-0.10690937457305612,-0.02418057427358044,104.27357695599234
4.74,-0.005400958023413908,-0.05661439844892186,104.26205412251838
4.75,-0.09007762182885524,-0.010859539344422353,104.22863790544386
4.76,0.01487113099597528,-0.04561006524657388,104.06040453672391
4.77,-0.07616830527540572,-0.021863872546770337,103.72278551593661
4.78,0.03344154830935735,-0.036343258339333474,103.36442539489614
4.79,-0.05412055882366128,-0.0033302587322895216,102.93692827301189
4.8,0.06592128217618892,0.0007239692896281568,102.44375100032599
4.81,-0.010062058783346458,0.030261916306456953,102.25247196465808
4.82,0.10361700975056408,0.009411600765166039,102.46564438392653
4.83,0.03458832706775345,0.06443326677690596,103.17314635922826
4.84,0.15869938301675113,0.050533056416045344,104.71144462800319
4.85,0.08796902862793338,0.09382641993580912,107.85372131635468
4.86,0.220773407422837,0.08282208673346114,113.13002676408531
4.87,0.14945116722323415,0.12799777040625812,119.65195051035207
4.88,0.27297033736144677,0.10888498116007479,125.84893035265287
4.89,0.19410155307433408,0.13263117385987833,130.9005405476411
4.9,0.2955729767608022,0.10193487597964448,134.13269533708956
4.91,0.18019223652088454,0.10714745486496721,135.55922212116698
4.92,0.21322686333532714,0.035474495191779684,135.37946591897307
4.93,0.06592128217618892,0.044741302099020094,134.05434006946655
4.94,0.08156926329881964,-0.04097666179295367,131.71981400764034
4.95,-0.07731508403380183,-0.04676841610997893,129.10413080904925
4.96,-0.02744870447515835,-0.09483997694128854,126.82491434789809
4.97,-0.13243445016316294,-0.06993543337807995,124.65862165479182
4.98,-0.06340576748035232,-0.12032369593619967,122.67208516387947
4.99,-0.1527435320457262,-0.08499399460234561,120.87567542528762
5.0,-0.05818977377280875,-0.11626946791428198,119.41688470748308
5.01,-0.14867431709657872,-0.08441481917064309,118.13669790852506
5.02,-0.04716590054693652,-0.11105688902895926,117.14919107980589
5.03,-0.1393891084398877,-0.0757271876951052,116.56498342267562
5.04,-0.04834967216850669,-0.10816101187044663,116.36333383688117
5.05,-0.1365036651123104,-0.07862306485361784,116.26193290231024
5.06,-0.03788069189024549,-0.09715667866809864,116.2400395187097
5.07,-0.13010389978319667,-0.061247801902542066,116.28497856925817
5.08,-0.04135802102860787,-0.0983150295315037,116.22851668523572
5.09,-0.13358122892155905,-0.0664603807878648,115.86900428084788
5.1,-0.038472577701030575,-0.08962739805596581,115.20644135609463
5.11,-0.13243445016316294,-0.0641436790610547,114.32033546194637
5.12,-0.0361420273210643,-0.09252327521447844,113.42155445097674
5.13,-0.1260346848340492,-0.06993543337807995,112.35569235463457
5.14,-0.04080312808099685,-0.10642348557533905,111.49147984408685
5.15,-0.1411277730090689,-0.08151894201213046,111.0985512226245
5.16,-0.04254179265017804,-0.09657750323639612,111.22184554079597
5.17,-0.14401321633664618,-0.0780438894219153,111.6597132128068
5.18,-0.04834967216850669,-0.09483997694128854,112.25429142006364
5.19,-0.13591177930152532,-0.0687770825146749,112.86039246079443
5.2,-0.05238189425448009,-0.10410678384852895,113.34319918335375
5.21,-0.13069578559398176,-0.06356450362935216,113.88246778993552
5.22,-0.051235115496083984,-0.10700266100704157,114.44362978011785
5.23,-0.13531989349074022,-0.07630636312680773,114.89302028560265
5.24,-0.05992843834198994,-0.11337359075576936,115.1396089219456
5.25,-0.13069578559398176,-0.07283131053659257,115.15113175541957
5.26,-0.04834967216850669,-0.1029484329851239,114.89302028560265
5.27,-0.14345832338903516,-0.0757271876951052,114.44362978011785
5.28,-0.05471244463444636,-0.1075818364387441,113.67966592079367
5.29,-0.1387972226291026,-0.07746471399021278,112.88343812774237
5.3,-0.06340576748035232,-0.12032369593619967,112.19898181938858
5.31,-0.11560269741896206,-0.06240615276594712,111.53641889463533
5.32,-0.01934726744003749,-0.08673152089745319,110.89574935348263
5.33,-0.057597887962023656,-0.042135012656358724,110.25623209567732
5.34,0.0032923648224920396,-0.05951027560743449,109.59366917092407
5.35,0.0003699286317406786,0.00014479385792563136,109.02213663061518
5.36,0.04853463648437703,-0.05429769672211176,108.50476140763395
5.37,-0.07442964070622453,-0.017809644524852657,107.95512225092561
5.38,-0.023379489526010887,-0.05661439844892186,107.52877741238873
5.39,-0.12954900683558565,-0.05661439844892186,107.2026812250754
5.4,-0.059336552531204845,-0.1075818364387441,107.02407730622888
5.41,-0.14808243128579365,-0.09078574891937087,106.91115353818397
5.42,-0.07328286194782843,-0.12495709938981987,106.84432110403495
5.43,-0.14575188090582736,-0.08557317003404813,106.74292016946401
5.44,-0.0813842989829493,-0.12321957309471229,106.54127058366954
5.45,-0.36382480931695743,0.01172830249197614,106.32809816440111
5.46,-0.03440336275188311,0.09208889364070155,106.19328101275566
5.47,1.1423396148152156,0.11004333202347984,106.03541819416229
5.48,1.6521382622170446,0.058062337028178174,105.83376860836782
5.49,0.8181341619576848,-0.030551504022308218,105.56413430507693
5.5,-0.13302633597394803,-0.41208331965634687,105.22766756763703
5.51,-0.1521516462349411,-0.21168862028727306,104.92461704727162
5.52,0.011393801857612901,-0.12206122223130723,104.6665055774547
5.53,-0.0947387225887878,-0.0641436790610547,104.40839410763779
5.54,-0.011800723352527647,-0.0826772928755355,104.17217602142141
5.55,-0.08833895725967406,-0.043872538951466304,104.03735886977597
5.56,0.002108593200921868,-0.06298532819764964,103.98089698575352
5.57,-0.07328286194782843,-0.03402655661252337,103.70089213233607
5.58,0.009100244340820693,-0.06703955621956732,103.20656257630277
5.59,-0.055304330445231455,-0.029393153158903167,102.74680152069138
5.6,0.026486890032632587,-0.052560170427004185,102.52210626794898
5.61,-0.02977925485512463,-0.010859539344422353,102.46564438392653
5.62,0.0537506301919206,-0.044451714383168826,102.38728911630353
5.63,-0.012392609163312734,-0.005646960459099623,102.2858881817326
5.64,0.0722840546421286,-0.015492942798042557,102.07271576246417
5.65,0.021825789272700038,0.025049337421134226,101.83764995959518
5.66,0.11811821211479868,0.013465828787083717,101.70283280794975
5.67,0.05663607351949789,0.04184542494050746,101.9828376613672
5.68,0.16509914834586487,0.04358295123561504,103.40936444544464
5.69,0.12507287039152343,0.0909305427772965,106.82127543708701
5.7,0.22310395780280326,0.08513878846027124,112.46746383933207
5.71,0.1761230215717371,0.11467673547710004,119.40536187400912
5.72,0.28632476096728526,0.09903899882113185,126.03905710497337
5.73,0.2358664955978567,0.13089364756477076,131.30383971923004
5.74,0.33097514681838514,0.10888498116007479,134.82867447891732
5.75,0.25439992004806466,0.12915612126966317,136.33355653061773
5.76,0.2909488688640437,0.07312089825244383,136.10886127787532
5.77,0.14771250265405297,0.052270582711152924,134.62702489312284
5.78,0.13435807904821448,-0.02012634625166276,132.15768167965118
5.79,0.0009618144425257644,-0.023022223410175388,129.64339941563102
5.8,0.01779356718672664,-0.08904822262426329,127.43101538862888
5.81,-0.06340576748035232,-0.042135012656358724,125.422585514116
5.82,-0.02744870447515835,-0.10179008212171885,123.50288145735267
5.83,-0.10402393124547882,-0.07862306485361784,121.56013173364141
5.84,-0.038472577701030575,-0.11974452050449713,119.76487427839696
5.85,-0.09821605172715017,-0.07167295967318753,118.238098843096
5.86,-0.02744870447515835,-0.10874018730214915,117.18260729688039
5.87,-0.0930000580196066,-0.07167295967318753,116.6548615237726
5.88,-0.017016717060071216,-0.09483997694128854,116.40827288742965
5.89,-0.08197618479373438,-0.06588120535616226,116.46358248810469
5.9,-0.015869938301675112,-0.0983150295315037,116.6548615237726
5.91,-0.09126139345042542,-0.07920224028532036,116.75626245834353
5.92,-0.010653944594131545,-0.08731069632915571,116.72284624126901
5.93,-0.08082940603533828,-0.06530202992445974,116.54309003907508
5.94,-0.007731508403380183,-0.08441481917064309,116.15016141761272
5.95,-0.08660029269049287,-0.05487687215381429,115.442659442311
5.96,-0.008878287161776287,-0.08093976658042794,114.5335078812148
5.97,-0.08197618479373438,-0.05545604758551681,113.67966592079367
5.98,-0.00484606507580289,-0.07283131053659257,113.00673244591384
5.99,-0.08371484936291557,-0.04908511783678903,112.28770763713814
6.0,-0.022232710767614784,-0.08788987176085823,111.72654564695583
6.01,-0.07731508403380183,-0.05082264413189661,111.56983511170985
6.02,-0.017016717060071216,-0.08846904719256077,111.96276373317221
6.03,-0.08545351393209676,-0.0664603807878648,112.73709814262295
6.04,-0.015869938301675112,-0.09136492435107339,113.46649350152522
6.05,-0.08430673517370066,-0.05545604758551681,113.92740684048401
6.06,-0.01934726744003749,-0.09310245064618097,114.21893452737544
6.07,-0.08312296355213049,-0.05777274931232691,114.48856883066632
6.08,-0.02108593200921868,-0.08904822262426329,114.66832503286025
6.09,-0.09007762182885524,-0.06993543337807995,114.6902184164608
6.1,-0.0216408249568297,-0.09483997694128854,114.63490881578574
6.11,-0.08256807060451947,-0.06356450362935216,114.35375167902087
6.12,-0.01468616668010494,-0.08731069632915571,113.83752873938704
6.13,-0.08082940603533828,-0.05545604758551681,113.34319918335375
6.14,-0.018755381629252405,-0.08788987176085823,112.85002191066786
6.15,-0.08312296355213049,-0.05719357388062439,112.19898181938858
6.16,-0.018755381629252405,-0.09078574891937087,111.34513985896744
6.17,-0.0813842989829493,-0.05661439844892186,110.54775978256875
6.18,-0.012392609163312734,-0.08962739805596581,109.81836442366648
6.19,-0.07790696984458692,-0.05661439844892186,109.3136643175066
6.2,-0.004254179265017804,-0.08731069632915571,108.83085759494729
6.21,-0.05238189425448009,-0.036922433771035996,108.336528038914
6.22,0.06477450341779283,-0.04792676697338398,107.95512225092561
6.23,-0.025710039905977162,0.002461495584735733,107.56219362946325
6.24,0.11464088297643629,-0.010280363912719827,107.18078784147485
6.25,0.03111099792939107,0.008832425333463513,106.82127543708701
6.26,0.04387353572444448,-0.04676841610997893,106.58620963421802
6.27,-0.0466110075993255,-0.014334591934637505,106.43986964909861
6.28,-0.01294750211092375,-0.07978141571702288,106.30505249745318
6.29,-0.08545351393209676,-0.06703955621956732,106.33846871452768
6.3,-0.023379489526010887,-0.10410678384852895,106.36151438147562
6.31,-0.10631748876227103,-0.07862306485361784,106.15871251233376
6.32,-0.03961935645942668,-0.11279441532406684,105.84529144184178
6.33,-0.1538903108041223,-0.08151894201213046,105.45236282037942
6.34,-0.27278537304557643,-0.00854283761761225,105.13778946654006
6.35,0.056044187708712806,0.1841777872814031,104.95803326434613
6.36,1.4404650991350285,0.03894954778199484,104.86815516324917
6.37,1.5234030983712885,0.10598910400156215,104.87967799672315
6.38,0.674897795747694,-0.09483997694128854,104.81169327922672
6.39,-0.15736763994248468,-0.3541657764860943,104.47522654178681
6.4,-0.017016717060071216,-0.22790553237494376,104.07077508685047
6.41,-0.034995248562668196,-0.08499399460234561,103.58796836429116
6.42,0.01313246642679409,-0.07862306485361784,103.0832682581313
6.43,-0.06340576748035232,-0.05951027560743449,102.73527868721742
6.44,-0.0001849643158703393,-0.08557317003404813,102.63387775264648
6.45,-0.047757786357721606,-0.036343258339333474,102.63387775264648
6.46,0.027078775843417675,-0.06993543337807995,102.52210626794898
6.47,-0.04080312808099685,-0.044451714383168826,102.29741101520658
6.48,0.03170288374017616,-0.05951027560743449,101.9828376613672
6.49,-0.017016717060071216,-0.019547170819960234,101.6463709239273
6.5,0.05027330105355822,-0.04792676697338398,101.25344230246493
6.51,-0.001368735937440511,-0.014334591934637505,100.8155746304541
6.52,0.08216114910960472,-0.01896799538825771,100.63581842826017
6.53,0.012577573479183073,-0.002751083300586996,100.59087937771169
6.54,0.09899290185380559,-0.012597065639529928,100.4341688424657
6.55,0.05955850971024926,0.036053670623482206,100.36733640831667
6.56,0.15118983179241535,0.025049337421134226,100.60240221118566
6.57,0.10302512393977899,0.0632749159135009,101.61295470685279
6.58,0.2033867617310251,0.052270582711152924,104.24016073891784
6.59,0.17031514205340842,0.09208889364070155,109.38049675165564
6.6,0.27182355860305063,0.09903899882113185,116.41979572090361
6.61,0.21441063495689733,0.11004333202347984,123.46831295693076
6.62,0.30545007122827833,0.08803466561878387,129.27236417776922
6.63,0.2642770145155408,0.12220601608923287,133.20165039239282
6.64,0.32109805235090905,0.08687631475537883,135.19970971677913
6.65,0.21263497752454205,0.08007100343287414,135.41288213604756
6.66,0.22425073656119937,0.014045004218786242,134.13269533708956
6.67,0.08216114910960472,0.0007239692896281568,131.56195118904697
6.68,0.08623036405875219,-0.05429769672211176,128.7112021875869
6.69,-0.03325658399348701,-0.04676841610997893,126.2188133071673
6.7,-0.005400958023413908,-0.0959983278046936,123.97416534643803
6.71,-0.07790696984458692,-0.07978141571702288,122.08787750674922
6.72,-0.03151791942430582,-0.10700266100704157,120.23615816748232
6.73,-0.08778406431206304,-0.07514801226340267,118.34987032779351
6.74,-0.020494046198433594,-0.1122152398923643,116.63296814017205
6.75,-0.09126139345042542,-0.08673152089745319,115.26290324011707
6.76,-0.01294750211092375,-0.09947338039490874,114.2304573608494
6.77,-0.08312296355213049,-0.07746471399021278,113.63587915359258
6.78,-0.0216408249568297,-0.11800699420938957,113.43307728445072
6.79,-0.06862176118789588,-0.06993543337807995,113.65777253719313
6.8,-0.000776850126655425,-0.09194409978277591,114.00576210810699
6.81,-0.06806686824028486,-0.06356450362935216,114.1175335928045
6.82,-0.0036622934542327183,-0.09657750323639612,113.44460011792468
6.83,-0.07328286194782843,-0.07225213510489005,112.07453521786971
6.84,-0.0031074005066217,-0.08441481917064309,110.89574935348263
6.85,-0.07502152651700962,-0.06761873165126984,110.1110443939053
6.86,-0.01990216038764851,-0.09020657348766833,109.58329862079749
6.87,-0.07616830527540572,-0.061826977334244596,109.3136643175066
6.88,-0.007731508403380183,-0.08209811744383298,109.22378621640965
6.89,-0.06747498242949977,-0.060668626470839544,109.30214148403265
6.9,-0.01468616668010494,-0.09773585409980116,109.56025295384956
6.91,-0.07154419737864724,-0.0687770825146749,110.09952156043133
6.92,-0.010062058783346458,-0.08846904719256077,110.85196258628154
6.93,-0.07383775489543945,-0.06472285449275722,111.67123604628077
6.94,-0.015869938301675112,-0.08846904719256077,112.47898667280604
6.95,-0.06862176118789588,-0.06761873165126984,113.10813338048477
6.96,-0.005400958023413908,-0.08325646830723804,113.52295538554768
6.97,-0.07036042575707707,-0.07746471399021278,113.7810668553646
6.98,0.002700479011706954,-0.07341048596829511,113.74765063829008
6.99,-0.07676019108619081,-0.07456883683170015,113.41118390085018
7.0,0.0009618144425257644,-0.07746471399021278,112.88343812774237
7.01,-0.0639976532911374,-0.06703955621956732,112.31075330408608
7.02,-0.0036622934542327183,-0.08962739805596581,111.70465226335529
7.03,-0.057597887962023656,-0.06935625794637743,111.03056650512806
7.04,0.05663607351949789,-0.07283131053659257,110.16635399458036
7.05,0.007324586908465437,-0.04097666179295367,109.30214148403265
7.06,0.09144635776629575,-0.01723046909315013,108.53932990805586
7.07,0.06765994674537011,-0.014334591934637505,107.80878226580619
7.08,0.08101437035120862,-0.035764082907630945,107.11280312397844
7.09,0.006769693960854419,-0.011438714776124877,106.52974775019558
7.1,0.018940345945122745,-0.051401819563599134,106.20365156288224
7.11,-0.07036042575707707,-0.08673152089745319,106.02389536068831
7.12,-0.00484606507580289,-0.09715667866809864,105.96858576001326
7.13,-0.06573631786031858,-0.08557317003404813,106.03541819416229
7.14,-0.006584729644984079,-0.09657750323639612,106.01352481056175
7.15,-0.05645110920362755,-0.08557317003404813,105.83376860836782
7.16,-0.13765044387070652,-0.071093784241485,105.59755052215144
7.17,-0.2403056391787448,0.015203355082191294,105.35096188580849
7.18,0.5165683413626836,0.16216912087670712,105.11474379959212
7.19,1.5964640031400725,0.009990776196868565,104.87967799672315
7.2,1.4903314786936719,0.07949182800117162,104.7448608450777
7.21,0.16742969872583113,-0.3379488643984236,104.84626177964863
7.22,-0.0813842989829493,-0.29856493504265186,104.83473894617467
7.23,-0.0176086028708563,-0.15912844986026886,104.44181032471229
7.24,0.051420079811954324,-0.09136492435107339,103.90254171813052
7.25,-0.01816349581846732,-0.060668626470839544,103.25150162685125
7.26,0.036918877447719725,-0.060668626470839544,102.69033963666894
7.27,-0.01468616668010494,-0.04850594240508651,102.44375100032599
7.28,0.04505730734601465,-0.05545604758551681,102.42070533337805
7.29,-0.000776850126655425,-0.03808078463444105,102.45527383379995
7.3,0.06070528846864536,-0.04734759154168146,102.42070533337805
7.31,0.025340111274236483,-0.02418057427358044,102.2858881817326
7.32,0.07983059872963845,-0.03286820574911832,101.96094427776666
7.33,0.04331864277683346,-0.012597065639529928,101.54496998935636
7.34,0.10247023099216797,-0.029393153158903167,101.14167081776743
7.35,0.07809193416045725,0.0030406710164382587,100.82709746392807
7.36,0.130288864099067,-0.014913767366340031,100.59087937771169
7.37,0.1001396806122017,0.01694088137729887,100.34429074136874
7.38,0.175531135760952,0.02041593396751402,100.2428898067978
7.39,0.15407527511999264,0.060958214186690805,100.54594032716321
7.4,0.22658128694116564,0.06385409134520344,101.60143187337881
7.41,0.20686409086938748,0.09150971820899902,104.1387598043469
7.42,0.2822555460181378,0.09382641993580912,108.9771975800667
7.43,0.2549918058588498,0.10483075313815711,115.48759849285948
7.44,0.338521690905895,0.12857694583796064,121.89775075442871
7.45,0.3002340775207348,0.11583508634050509,127.22936580283442
7.46,0.3680789885819752,0.12220601608923287,130.96737298179013
7.47,0.29908729876233864,0.10598910400156215,132.93201608910192
7.48,0.30311952084831206,0.06617079307201354,133.24658944294129
7.49,0.17726980033013318,0.016361705945596345,132.17957506325172
7.5,0.15988315463832128,-0.01896799538825771,129.93492710252247
7.51,0.0537506301919206,-0.04850594240508651,127.31924390393138
7.52,0.060113402657860276,-0.07920224028532036,125.02965689265363
7.53,-0.0036622934542327183,-0.07630636312680773,122.98665851771884
7.54,0.02300956089427021,-0.10005255582661127,121.01049257693306
7.55,-0.026301925716762247,-0.09310245064618097,119.13572757071823
7.56,0.0258950042218475,-0.09252327521447844,117.44071876669732
7.57,-0.011208837541742562,-0.08209811744383298,116.02686709944125
7.58,0.03632699163693464,-0.08962739805596581,114.84808123505417
7.59,-0.010653944594131545,-0.08731069632915571,113.94930022408455
7.6,0.03284966249857226,-0.0959983278046936,113.4780163349992
7.61,-0.0031074005066217,-0.07862306485361784,113.29826013280527
7.62,0.04446542153522957,-0.07862306485361784,113.34319918335375
7.63,0.007916472719250523,-0.06703955621956732,113.29826013280527
7.64,0.051420079811954324,-0.06935625794637743,113.27636674920473
7.65,0.005031029391673229,-0.06298532819764964,113.18648864810777
7.66,0.05256685857035043,-0.061247801902542066,112.63569720805202
7.67,0.006769693960854419,-0.06472285449275722,111.61477416225833
7.68,0.051420079811954324,-0.058931100175731964,110.43598829787125
7.69,0.006769693960854419,-0.06993543337807995,109.3920195851296
7.7,0.03980432077529702,-0.06993543337807995,108.6741470597013
7.71,-0.01294750211092375,-0.06935625794637743,108.41603558988439
7.72,0.028817440412598865,-0.07283131053659257,108.72945666037636
7.73,-0.012392609163312734,-0.07051460880978247,109.62823767134599
7.74,0.02996421917099497,-0.07688553855851026,110.50397301536766
7.75,-0.008878287161776287,-0.071093784241485,111.07550555567656
7.76,0.03229476955096124,-0.06819790708297237,111.45806362701234
7.77,-0.010653944594131545,-0.07167295967318753,111.81642374805278
7.78,0.04331864277683346,-0.061826977334244596,112.29923047061212
7.79,0.0009618144425257644,-0.058931100175731964,112.8719152942684
7.8,0.03751076325850481,-0.06935625794637743,113.33167634987979
7.81,-0.005992843834198993,-0.07630636312680773,113.35472201682772
7.82,0.028225554601813776,-0.061247801902542066,113.14154959755929
7.83,-0.017016717060071216,-0.08383564373894056,112.69215909207448
7.84,0.03170288374017616,-0.07398966139999763,112.14251993536612
7.85,-0.005992843834198993,-0.07514801226340267,111.59172849531039
7.86,0.028817440412598865,-0.07341048596829511,110.9406884040311
7.87,-0.007139622592595097,-0.07398966139999763,110.13293777750584
7.88,0.038657542016900914,-0.07920224028532036,109.25720243348417
7.89,0.03170288374017616,-0.05661439844892186,108.48286802403341
7.9,0.09780913023223542,-0.051401819563599134,107.91018320037712
7.91,0.056044187708712806,-0.01896799538825771,107.41585364434383
7.92,0.1627685979658986,0.003619846448140784,106.94456975525848
7.93,0.10650245307814137,-0.0010135570054794197,106.50670208324763
7.94,0.0856384782479671,-0.015492942798042557,106.03541819416229
7.95,0.03229476955096124,-0.01607211822974508,105.64248957269993
7.96,0.03458832706775345,-0.05545604758551681,105.26108378471153
7.97,-0.0001849643158703393,-0.07341048596829511,104.95803326434613
7.98,0.01953223175590783,-0.07920224028532036,104.87967799672315
7.99,-0.026893811527547336,-0.1006317312583138,104.76675422867824
8.0,0.01487113099597528,-0.08499399460234561,104.54321125928323
8.01,-0.040211242270211764,-0.10005255582661127,104.39687127416381
8.02,-0.2263963226252953,0.007674074470058462,104.27357695599234
8.03,0.03229476955096124,0.13726457731349853,103.9140645516045
8.04,1.3337406888778427,0.08224291130175862,103.55455214721665
8.05,1.6927564259821712,0.08629713932367629,103.29644067739973
8.06,0.910949255661421,-0.042135012656358724,103.22960824325071
8.07,-0.09647738715796898,-0.3674868114152524,103.23997879337728
8.08,-0.000776850126655425,-0.20937191856046294,103.0832682581313
8.09,0.04154298534447821,-0.10005255582661127,102.72375585374344
8.1,0.04213487115526329,-0.060089451039137015,102.26399479813206
8.11,0.02127089632508902,-0.060668626470839544,101.90448239374422
8.12,0.04505730734601465,-0.060089451039137015,101.62447754032675
8.13,0.02763366879102869,-0.04850594240508651,101.48966038868132
8.14,0.051420079811954324,-0.04792676697338398,101.43319850465886
8.15,0.04505730734601465,-0.03344738118082084,101.34332040356189
8.16,0.07402271921130979,-0.03344738118082084,101.16356420136798
8.17,0.05548929476110179,-0.03228903031741579,100.89392989807709
8.18,0.084491699489571,-0.02418057427358044,100.67038692868208
8.19,0.08042248454042353,-0.015492942798042557,100.50100127661473
8.2,0.11811821211479868,-0.006226135890802149,100.3223973577682
8.21,0.11985687668397987,0.014045004218786242,100.06428588795129
8.22,0.14885928141244906,0.017520056809001396,99.7946515846604
8.23,0.14771250265405297,0.03373696889667211,99.69325065008947
8.24,0.19350966726354898,0.051691407279450395,100.02971738752937
8.25,0.18655500898682423,0.0563248107330706,101.36636607050984
8.26,0.2352746097870716,0.07370007368414637,104.76675422867824
8.27,0.26949300822308436,0.10425157770645459,110.43598829787125
8.28,0.31821260902333176,0.11351838461369498,117.38425688267486
8.29,0.31821260902333176,0.11931013893072025,124.16429209875852
8.3,0.3680789885819752,0.13321034929158085,129.53047564758612
8.31,0.37562553266948506,0.13321034929158085,132.96543230617644
8.32,0.3831720767569949,0.10946415659177731,134.48068490800344
8.33,0.34026035547507616,0.09614312166261922,134.2340962716605
8.34,0.2805168814489566,0.0540081090062605,132.66238178581105
8.35,0.1784165790885293,-0.002751083300586996,130.13657668831692
8.36,0.1291420853406709,-0.02881397772720064,127.70064969191976
8.37,0.05256685857035043,-0.06356450362935216,125.7256360344814
8.38,0.03284966249857226,-0.06761873165126984,123.74947009369562
8.39,0.0038472577701030575,-0.08325646830723804,121.89775075442871
8.4,0.006769693960854419,-0.08615234546575067,120.17969628345986
8.41,-0.011208837541742562,-0.09657750323639612,118.5411493634614
8.42,0.012577573479183073,-0.07862306485361784,117.07083581218289
8.43,-0.0031074005066217,-0.09657750323639612,116.1951004681612
8.44,0.015463016806760366,-0.07341048596829511,115.68924807865395
8.45,-0.008323394214165268,-0.08962739805596581,115.20644135609463
8.46,0.005585922339284247,-0.071093784241485,114.91491366920319
8.47,-0.008878287161776287,-0.08499399460234561,114.78009651755775
8.48,0.005031029391673229,-0.07978141571702288,114.89302028560265
8.49,-0.010653944594131545,-0.09194409978277591,115.09466987139712
8.5,0.009655137288431712,-0.06935625794637743,115.16150230554614
8.51,0.00155370025331085,-0.07051460880978247,114.81351273463225
8.52,0.012577573479183073,-0.07167295967318753,113.7027115877416
8.53,0.002700479011706954,-0.0780438894219153,112.05264183426917
8.54,0.011985687668397986,-0.06935625794637743,110.53738923244218
8.55,-0.011800723352527647,-0.08093976658042794,109.5487301203756
8.56,0.0032923648224920396,-0.06935625794637743,108.96567474659273
8.57,-0.005400958023413908,-0.06298532819764964,108.70756327677582
8.58,-0.0001849643158703393,-0.06356450362935216,108.83085759494729
8.59,-0.026893811527547336,-0.09657750323639612,109.19036999933513
8.6,-0.004254179265017804,-0.061826977334244596,109.61671483787201
8.61,-0.03732579894263447,-0.09947338039490874,110.05458250988285
8.62,-0.026893811527547336,-0.08962739805596581,110.50397301536766
8.63,-0.03558713437345328,-0.08788987176085823,111.15501310664693
8.64,-0.02108593200921868,-0.06530202992445974,111.88440846554921
8.65,-0.03906446351181566,-0.09541915237299108,112.44557045573153
8.66,-0.008878287161776287,-0.05661439844892186,112.74862097609693
8.67,-0.03732579894263447,-0.08846904719256077,112.73709814262295
8.68,-0.025710039905977162,-0.06761873165126984,112.59191044085094
8.69,-0.0361420273210643,-0.08673152089745319,112.25429142006364
8.7,-0.03788069189024549,-0.07920224028532036,111.7380684804298
8.71,-0.03384846980427209,-0.0757271876951052,110.98562745457959
8.72,-0.036733913131849386,-0.07398966139999763,110.26775492915128
8.73,-0.04542723597775533,-0.08673152089745319,109.59366917092407
8.74,-0.03961935645942668,-0.06703955621956732,109.01061379714122
8.75,-0.03732579894263447,-0.0780438894219153,108.38146708946248
8.76,-0.03151791942430582,-0.05371852129040924,107.85372131635468
8.77,0.01660979556515647,-0.04850594240508651,107.24762027562387
8.78,0.012577573479183073,-0.023022223410175388,106.50670208324763
8.79,0.06592128217618892,-0.005646960459099623,106.01352481056175
8.8,0.07809193416045725,-0.010280363912719827,105.59755052215144
8.81,0.021825789272700038,-0.02128469711506781,105.24956095123757
8.82,-0.0025155146958366144,-0.021863872546770337,104.90157138032369
8.83,-0.04487234303014431,-0.05777274931232691,104.68839896105524
8.84,-0.06111220996356011,-0.08209811744383298,104.48674937526079
8.85,-0.059336552531204845,-0.09426080150958602,104.39687127416381
8.86,-0.07557641946462064,-0.08615234546575067,104.35193222361534
8.87,-0.07964563441376811,-0.10700266100704157,104.2171150719699
8.88,-0.06632820367110367,-0.0757271876951052,103.97052643562695
8.89,-0.287286575409811,-0.03286820574911832,103.6110140312391
8.9,-0.151004867476545,0.06211656505009586,103.26302446032521
8.91,0.9410984391482864,0.10598910400156215,103.06137487453076
8.92,1.5663148196532073,0.07312089825244383,102.8919892224634
8.93,1.0756414825123712,0.01578253051389382,102.72375585374344
8.94,-0.04309668559778906,-0.41266249508804936,102.45527383379995
8.95,-0.14519698795821634,-0.24122656730410186,101.7927109090467
8.96,-0.03732579894263447,-0.11916534507279461,101.36636607050984
8.97,-0.05412055882366128,-0.09310245064618097,101.32142701996135
8.98,-0.057597887962023656,-0.05429769672211176,101.39978228758434
8.99,-0.06052032415277502,-0.07688553855851026,101.30990418648739
9.0,-0.055304330445231455,-0.0392391354978461,101.073686100271
9.01,-0.03906446351181566,-0.05603522301721934,100.79368124685355
9.02,-0.03558713437345328,-0.02475974970528296,100.49063072648815
9.03,-0.011800723352527647,-0.021863872546770337,100.26593547374574
9.04,-0.014131273732493923,-0.010280363912719827,100.07465643807785
9.05,-0.017016717060071216,-0.036922433771035996,100.0193468374028
9.06,-0.007139622592595097,-0.010280363912719827,99.91794590283187
9.07,0.007324586908465437,-0.02418057427358044,99.73818970063795
9.08,0.01605490261754545,0.006515723606653412,99.36830674612352
9.09,0.02300956089427021,-0.012017890207827403,98.97537812466116
9.1,0.03344154830935735,0.027945214579646854,98.6942209878963
9.11,0.07694515540206115,0.036632846055184735,98.79562192246723
9.12,0.08330792786800083,0.0563248107330706,99.5250172813695
9.13,0.12448098458073835,0.05516645986966555,101.27648796941287
9.14,0.14771250265405297,0.102514051411347,104.91309421379765
9.15,0.18366956565924691,0.08803466561878387,110.75056165171061
9.16,0.18248579403767676,0.11178085831858742,117.57553591834275
9.17,0.22831995151034684,0.11293920918199246,123.88428724534107
9.18,0.2346827239762865,0.13842292817690358,128.68815652063896
9.19,0.2549918058588498,0.11409756004539752,131.6633521236179
9.2,0.21034142000774986,0.10830580572837226,132.752259886908
9.21,0.16857647748422724,0.03489531976007716,132.16805222977774
9.22,0.08623036405875219,0.030261916306456953,130.40621099160782
9.23,0.02127089632508902,-0.04271418808806125,127.93686777813615
9.24,-0.040211242270211764,-0.036343258339333474,125.5343569988135
9.25,-0.061667102911171126,-0.0757271876951052,123.40148052278174
9.26,-0.10517071000387493,-0.05951027560743449,121.335436480899
9.27,-0.09936283048554627,-0.08673152089745319,119.2590218888897
9.28,-0.12081869112650563,-0.07283131053659257,117.26096256450339
9.29,-0.11908002655732444,-0.10179008212171885,115.46455282591154
9.3,-0.13358122892155905,-0.0757271876951052,113.99423927463303
9.31,-0.09588550134718389,-0.08557317003404813,112.99520961243987
9.32,-0.13010389978319667,-0.06761873165126984,112.33264668768662
9.33,-0.1097948179006334,-0.09078574891937087,111.95124089969823
9.34,-0.12255735569568682,-0.071093784241485,111.7714846975043
9.35,-0.10054660210711644,-0.08788987176085823,111.71617509682926
9.36,-0.11560269741896206,-0.05545604758551681,111.70465226335529
9.37,-0.08082940603533828,-0.06356450362935216,111.3232464753669
9.38,-0.11967191236810953,-0.04966429326849156,110.97525690445302
9.39,-0.08893084307045913,-0.07225213510489005,110.59269883311723
9.4,-0.13069578559398176,-0.061826977334244596,109.87482630768892
9.41,-0.10169338086551255,-0.08325646830723804,108.83085759494729
9.42,-0.13069578559398176,-0.05951027560743449,107.80878226580619
9.43,-0.10054660210711644,-0.08788987176085823,107.14737162440034
9.44,-0.13824232968149158,-0.06240615276594712,106.97913825568038
9.45,-0.1115334824698146,-0.08383564373894056,107.3156049931203
9.46,-0.12895712102480056,-0.060089451039137015,108.01158413494805
9.47,-0.1075012603838412,-0.08673152089745319,108.85275097854783
9.48,-0.1347650005431292,-0.05371852129040924,109.59366917092407
9.49,-0.10805615333145221,-0.0983150295315037,110.31269397969977
9.5,-0.1393891084398877,-0.061247801902542066,110.97525690445302
9.51,-0.09762416591636508,-0.08383564373894056,111.62629699573229
9.52,-0.13010389978319667,-0.061247801902542066,112.06416466774313
9.53,-0.09880793753793525,-0.08904822262426329,112.33264668768662
9.54,-0.12954900683558565,-0.07051460880978247,112.42252478878359
9.55,-0.09181628639803643,-0.08325646830723804,112.2323980364631
9.56,-0.12895712102480056,-0.061247801902542066,111.76111414737774
9.57,-0.08604539974288185,-0.07630636312680773,111.07550555567656
9.58,-0.13417311473234414,-0.06703955621956732,110.35763303024825
9.59,-0.08604539974288185,-0.07688553855851026,109.61671483787201
9.6,-0.09588550134718389,-0.035764082907630945,108.78591854439881
9.61,-0.025710039905977162,-0.06530202992445974,107.97816791787355
9.62,-0.07036042575707707,-0.00854283761761225,107.28218877604579
9.63,0.035180212878538536,-0.017809644524852657,106.69798111891554
9.64,-0.03906446351181566,-0.00043438157377689407,106.1817581792817
9.65,-0.047757786357721606,-0.036343258339333474,105.72084484032291
9.66,-0.10402393124547882,-0.011438714776124877,105.31754566873398
9.67,-0.08893084307045913,-0.06761873165126984,104.95803326434613
9.68,-0.1521516462349411,-0.07746471399021278,104.62156652690622
9.69,-0.10864803914223731,-0.09657750323639612,104.37382560721588
9.7,-0.1492662029073638,-0.0826772928755355,104.22863790544386
9.71,-0.10169338086551255,-0.10179008212171885,104.07077508685047
9.72,-0.17593805725586675,-0.07341048596829511,103.90254171813052
9.73,-0.35109926438507805,-0.0033302587322895216,103.6110140312391
9.74,-0.022232710767614784,0.14942726137925158,103.44278066251914
9.75,1.3673672015030702,0.04010789864539989,103.37479594502273
9.76,1.5407897440631004,0.08340126216516366,103.34137972794821
9.77,0.6807056752660227,-0.0780438894219153,103.28491784392575
9.78,-0.20494046198433594,-0.33621133810331605,103.12820730867978
9.79,-0.08371484936291557,-0.2151636728774882,103.04985204105678
9.8,-0.07209909032625826,-0.07514801226340267,102.67881680319496
9.81,-0.049496450926902795,-0.07746471399021278,102.30893384868054
9.82,-0.09706927296875406,-0.043872538951466304,101.90448239374422
9.83,-0.03732579894263447,-0.061247801902542066,101.48966038868132
9.84,-0.07442964070622453,-0.017809644524852657,101.17508703484194
9.85,-0.025118154095192077,-0.05082264413189661,100.97343744904748
9.86,-0.06632820367110367,-0.01375541650293498,100.92849839849899
9.87,-0.017016717060071216,-0.043293363519763775,100.87203651447655
9.88,-0.057042995014412644,-0.025338925136985487,100.77063557990562
9.89,0.009655137288431712,-0.02649727600039054,100.58050882758512
9.9,-0.04254179265017804,-0.015492942798042557,100.31087452429423
9.91,0.026486890032632587,-0.023601398841877914,99.91794590283187
9.92,-0.0036622934542327183,0.018678407672406448,99.53654011484348
9.93,0.06592128217618892,0.00014479385792563136,99.34526107917559
9.94,0.03229476955096124,0.04705800382583019,99.46855539734706
9.95,0.11752632630401359,0.04358295123561504,99.78312875118642
9.96,0.08796902862793338,0.07833347713776657,100.7038031457566
9.97,0.1749392499501669,0.07427924911584889,103.13973014215374
9.98,0.1430514018941204,0.10946415659177731,107.80878226580619
9.99,0.22539751531959548,0.09845982338942932,114.25235074444994
