time_s,ECG1,ECG2,NIBP
0.0,-0.13089353341036766,-0.10236111348068047,100.68948716794871
0.01,-0.15527834497717716,-0.06023887284961384,100.20679205524267
0.02,-0.1386164039065891,-0.10591591365595097,99.76927530283918
0.03,-0.1546702449381046,-0.06381508748377152,99.23070169186421
0.04,-0.13624481375420616,-0.13024273895177796,98.73730644119178
0.05,-0.14217378913516357,-0.1509933496134473,98.52389813397322
0.06,0.1342380836252667,0.0821030353734161,98.4680196357043
0.07,0.4076702661942415,0.642626496745134,98.25461132848574
0.08,0.8528907098012133,0.5198359894860918,97.92944602472933
0.09,0.04566831293434895,0.028138598977743547,97.61498085893932
0.1,-0.2931650288368792,-0.20971179588207195,97.43545632194765
0.11,-0.20340946306976995,-0.13795194415115974,97.34569405345184
0.12,-0.06549237420811427,-0.07270208792194774,97.2898155551829
0.13,-0.08869139069873228,-0.01636064658979914,97.13228574623328
0.14,-0.07084365455195277,-0.059061077610819405,96.95276120924161
0.15,-0.08987718577492376,-0.00922963178037098,96.87429353082142
0.16,-0.06014109386427578,-0.04601967214853187,96.88558812089705
0.17,-0.0672862693233783,0.0138979838177744,96.8184150325525
0.18,-0.04290145775656882,-0.029402052052086673,96.62759590548521
0.19,-0.057191808674773886,0.021007584168315385,96.31372519180444
0.2,-0.015567361000257431,-0.00805183654157654,96.04443838631695
0.21,-0.02329023149647889,0.04711180955177763,95.80844089894713
0.22,0.011766735756053958,0.018630579231839334,95.61762177187984
0.23,0.008787045564598433,0.07972603043694004,95.42680264481255
0.24,0.05041149323911488,0.05599880998995386,95.24727810782089
0.25,0.056340468620072304,0.126002676092118,95.04575884278722
0.26,0.11103906713464871,0.11296127062983044,95.02316966263595
0.27,0.13183608847093012,0.19420772764775968,95.13552111128304
0.28,0.20079463290175797,0.18827592253601313,95.16881042940071
0.29,0.22338554935330343,0.2701433988616703,95.65150554210675
0.3,0.28817860851648425,0.2559027837017012,97.6934485373595
0.31,0.3066040397003827,0.32588523534497815,101.87898583854574
0.32,0.3517858726034736,0.28733920934806917,106.6809699770179
0.33,0.3280091610757367,0.3241078352573429,111.2249619000782
0.34,0.2935298888603227,0.2274215533817629,114.54616583442382
0.35,0.18118340664166804,0.20133874245718783,116.59999787186145
0.36,0.10568778679081021,0.07499343502287512,117.76690736230721
0.37,-0.006050595388771931,0.051266214575888924,118.41723796982002
0.38,-0.036364382336538846,-0.03295685222735717,118.67523018523188
0.39,-0.09522846611876226,-0.014583246502163891,118.58546791673605
0.4,-0.09404267104257077,-0.0750790928584238,118.22641884275274
0.41,-0.12256256287507365,-0.03295685222735717,117.62067214343321
0.42,-0.10532292676736668,-0.08041129312132954,116.9025739954666
0.43,-0.12791384321891214,-0.03533385716383322,116.05012967081086
0.44,-0.11128230715027773,-0.08101089797017035,114.93909867863402
0.45,-0.13150163344944021,-0.031179452139721918,113.44702388443186
0.46,-0.10769451691974966,-0.08278829805780559,111.64048392443968
0.47,-0.12970773833417618,-0.034734252314992414,109.95759000317022
0.48,-0.11186000218739667,-0.08101089797017035,108.64444529385047
0.49,-0.13505901867801468,-0.03355645707619797,107.6237710222787
0.5,-0.10891071699789477,-0.074479488009583,106.73684847528682
0.51,-0.1285219432579847,-0.029402052052086673,106.1311017759673
0.52,-0.10650872184355817,-0.0786338930336943,105.71617420371506
0.53,-0.13207932848655915,-0.03593346201267403,105.21088991085774
0.54,-0.10711682188263072,-0.0833879029066464,104.65032157184076
0.55,-0.12672804814272065,-0.03533385716383322,103.9655127419918
0.56,-0.10413713169117521,-0.07981168827248873,103.10177382726043
0.57,-0.13150163344944021,-0.03771086210030927,102.15897278199961
0.58,-0.10769451691974966,-0.08041129312132954,101.49734758441116
0.59,-0.12909963829510362,-0.03593346201267403,101.10441474020095
0.6,-0.10593102680643925,-0.0833879029066464,100.97006856351183
0.61,-0.13445091863894212,-0.04066605742673896,101.25064995907495
0.62,-0.10474523173024776,-0.08101089797017035,101.85639665839447
0.63,-0.1326874285256317,-0.04186526712442057,102.31650259094924
0.64,-0.11009651207408624,-0.08101089797017035,102.87707092996624
0.65,-0.13207932848655915,-0.03237866183740353,103.69622593650432
0.66,-0.1083026169588222,-0.08041129312132954,104.65032157184076
0.67,-0.13089353341036766,-0.037111257251468466,105.39041444784941
0.68,-0.11304579726358814,-0.08396609329660003,105.88440415063108
0.69,-0.13682250879132507,-0.03295685222735717,106.11980718589166
0.7,-0.10769451691974966,-0.07745609779489986,106.25474781469002
0.71,-0.11602548745504367,-0.021093242003864074,106.33321549311022
0.72,-0.060749193903348334,-0.06974689259551806,106.24345322461438
0.73,-0.08452590543108528,-0.024069851789180932,105.67099584341253
0.74,-0.021526741383168478,-0.04957447232380237,104.91960837732825
0.75,0.04150282766670194,0.053643219512364976,104.31326722589948
0.76,0.03256375709233537,-0.002719636278670799,103.76399347695812
0.77,0.00048648003125804473,0.018630579231839334,103.21412527590752
0.78,-0.026269921687934416,-0.030579847290881115,102.52931644605856
0.79,-0.10413713169117521,-0.025247647027975374,101.79992370801631
0.8,-0.1083026169588222,-0.08574349338423527,101.09312015012532
0.81,-0.14576157936569165,-0.03831046694915008,100.67819257787308
0.82,-0.13682250879132507,-0.08989789840834658,100.34173268404103
0.83,-0.16537280562578158,-0.04126566227557977,99.72469139464589
0.84,-0.14041029902185317,-0.08694270308191689,99.06247174494818
0.85,-0.16537280562578158,-0.04482046245085026,98.55778190420013
0.86,-0.1380387088694702,-0.08694270308191689,98.18743824014118
0.87,-0.15941342524287053,-0.040087867036785324,97.94014616269573
0.88,-0.1356367137151336,-0.09465190828129869,97.78321080585533
0.89,-0.18796372207732703,-0.11124811391885671,97.61498085893932
0.9,0.011766735756053958,-0.05017407717264317,97.41286714179638
0.91,0.25132774614868736,0.5257677945978383,97.03182333977105
0.92,0.7988002113257094,0.7043215527990755,96.72865276405668
0.93,0.18951437717696204,0.1995399279106654,96.71735817398104
0.94,-0.20994653848979994,-0.1925159853956731,96.8629989407458
0.95,-0.2943508239130707,-0.1432841444140655,96.82970962262813
0.96,-0.08452590543108528,-0.08101089797017035,96.65018508563648
0.97,-0.10474523173024776,0.0097435787936631,96.380898280149
0.98,-0.07619493489579125,-0.03237866183740353,96.17878456300608
0.99,-0.10355943665405627,0.007966178706027853,96.03314379624132
1.0,-0.0726375496672168,-0.03000165690092748,95.9094977575186
1.01,-0.09048528581399633,0.02576159404126749,95.74126781060257
1.02,-0.057769503711892815,-0.015161436892117526,95.56174327361092
1.03,-0.07443144478248084,0.04473480461530157,95.41610250684616
1.04,-0.029827306916508867,0.01507577905656884,95.2811618780478
1.05,-0.044117657834713934,0.06668462497465251,95.1242265212074
1.06,-0.0013074150840059952,0.037625204264760584,94.8775288958712
1.07,-0.0048648003125804475,0.09574404568454443,94.58565291023244
1.08,0.04150282766670194,0.07677083511051036,94.37224460301388
1.09,0.03791503743617386,0.14439769627619842,94.20401465609787
1.1,0.09796491629458876,0.12955747626738848,94.05837388933311
1.11,0.10568778679081021,0.19836213267187097,93.95731703076166
1.12,0.1806057116045491,0.19360812279891887,93.99060634887931
1.13,0.19249406736841757,0.2653893889887182,94.3276606948206
1.14,0.2733409675631139,0.25768018378933644,95.72997322052693
1.15,0.28760091347936534,0.33537184063199516,99.03988256479691
1.16,0.3369178266481496,0.29860321472272144,103.4049444029748
1.17,0.3274314660386177,0.345458050767853,108.31927999009406
1.18,0.3191004955033237,0.26598899383755903,112.5268120193223
1.19,0.21922006408565642,0.24641617841468416,115.5115560598359
1.2,0.14314674919767967,0.12007087098037143,117.21703916125661
1.21,0.020675401328466902,0.09456625044575,118.23771343282837
1.22,-0.0274557167641259,-0.01338403680448228,118.63064627703858
1.23,-0.08926908573585121,0.007966178706027853,118.42853255989566
1.24,-0.08808329065965972,-0.059061077610819405,117.7776075002736
1.25,-0.12374835795126513,-0.012805846414528645,117.07080394238261
1.26,-0.11009651207408624,-0.07032508298547169,116.80151713689513
1.27,-0.13326512356275064,-0.01636064658979914,116.21835961772688
1.28,-0.10057974646260075,-0.0667702828102012,114.8832201803651
1.29,-0.13445091863894212,-0.02169284685270488,112.81868800496106
1.3,-0.10891071699789477,-0.06439327787372515,110.83262350797723
1.31,-0.13150163344944021,-0.01753844182859358,109.29537035347252
1.32,-0.09820815631021779,-0.06499288272256595,107.88176323769055
1.33,-0.13207932848655915,-0.027025047115610618,106.6809699770179
1.34,-0.10532292676736668,-0.067369887659042,105.55923884687466
1.35,-0.1380387088694702,-0.027025047115610618,104.70620007010969
1.36,-0.10057974646260075,-0.06914728774667725,104.33585640605074
1.37,-0.12909963829510362,-0.02287064209149932,104.0332802824456
1.38,-0.10115744149971968,-0.0750790928584238,103.52799598958829
1.39,-0.13207932848655915,-0.029402052052086673,102.21544573237779
1.4,-0.10650872184355817,-0.07330169277078855,101.05983083200766
1.41,-0.1273361481817932,-0.022292451701545684,100.72277648606638
1.42,-0.10413713169117521,-0.07032508298547169,100.62231407960415
1.43,-0.1356367137151336,-0.030579847290881115,100.3750220021587
1.44,-0.10891071699789477,-0.07387988316074219,100.20679205524267
1.45,-0.13445091863894212,-0.028802447203245866,100.11702978674685
1.46,-0.1094884120350137,-0.0756786977072646,100.36372741208307
1.47,-0.14041029902185317,-0.026446856725656984,100.91359561313367
1.48,-0.11067420711120518,-0.07330169277078855,101.66557753132719
1.49,-0.14159609409804463,-0.030579847290881115,102.72013557312584
1.5,-0.11721128253123515,-0.07387988316074219,103.75269888688248
1.51,-0.14098799405897208,-0.029402052052086673,104.24609413755492
1.52,-0.11426199734173326,-0.07625688809721824,104.52667553311804
1.53,-0.1433899892133087,-0.028802447203245866,104.97548687559717
1.54,-0.11186000218739667,-0.07032508298547169,105.43559280815194
1.55,-0.1326874285256317,-0.02051505161391044,105.65970125333689
1.56,-0.07917462508724678,-0.07270208792194774,105.65970125333689
1.57,-0.07798883001105529,-0.003297826668624434,105.32324135950485
1.58,-0.04767504306328838,-0.05312927249907286,104.67231629988278
1.59,0.008209350527479505,0.02991599906537879,103.94351801394977
1.6,0.054576978506761895,0.012720188578979958,103.18024150568061
1.61,-0.0048648003125804475,0.02042939377836175,102.45084876763836
1.62,0.005837760375096537,-0.015161436892117526,101.73275061967175
1.63,-0.09285687596637929,-0.00922963178037098,101.05983083200766
1.64,-0.1094884120350137,-0.07745609779489986,100.48737345080579
1.65,-0.1493189645942661,-0.031179452139721918,100.00467833809975
1.66,-0.13207932848655915,-0.08278829805780559,99.41022622885586
1.67,-0.17011598593054753,-0.03888865733910371,98.83776884765399
1.68,-0.14278188917423612,-0.08278829805780559,98.4002520952505
1.69,-0.17251798108488411,-0.034734252314992414,98.2433167384101
1.7,-0.14217378913516357,-0.08634309823307608,98.11967069968738
1.71,-0.17011598593054753,-0.040087867036785324,97.51392400036785
1.72,-0.14694737444188313,-0.08694270308191689,96.89688271097269
1.73,-0.18200434169441598,-0.08101089797017035,96.62759590548521
1.74,-0.11544779241792474,-0.1509933496134473,96.53783363698938
1.75,0.1764402263369021,0.3003806148103567,96.51524445683812
1.76,0.58064432230843,0.5933946557635263,96.54912822706501
1.77,0.6204748748676824,0.3330162501544063,96.47066054864483
1.78,-0.07202944962814425,-0.1515929544622881,96.2685468315019
1.79,-0.34430624212288113,-0.19844779050741967,96.04443838631695
1.8,-0.14694737444188313,-0.1509933496134473,95.89820316744296
1.81,-0.09939395138640926,0.0020343735942813064,95.87561398729169
1.82,-0.08096852020251082,-0.04779707223616712,95.89820316744296
1.83,-0.10474523173024776,0.010921374032457541,95.76385699075384
1.84,-0.0726375496672168,-0.037111257251468466,95.55044868353528
1.85,-0.09343457100349822,0.02576159404126749,95.37092414654363
1.86,-0.051840528330935394,-0.014583246502163891,95.23657796985451
1.87,-0.07798883001105529,0.04058039959119027,95.10163734105615
1.88,-0.03934407252799437,-0.0021200314298299933,94.95599657429139
1.89,-0.04946893817855243,0.06312982479938202,94.652825998577
1.9,-0.012587670808801908,0.021607189017156192,94.34965542286263
1.91,-0.020340946306976995,0.08330224507109771,94.31636610474496
1.92,0.03435765220759941,0.06075281986290597,94.36095001293826
1.93,0.026026681672305395,0.12480346639443636,94.2153092461735
1.94,0.08787045564598434,0.10345325088392623,93.90084408038348
1.95,0.08905625072217581,0.1758341219225664,93.64285186497163
1.96,0.16990315091687214,0.1633709068502325,93.50850568828251
1.97,0.18474079187024248,0.24581657356584335,93.60956254685398
1.98,0.26084451176017287,0.23039816316707976,94.1814254759466
1.99,0.2697531773325858,0.3051346246833088,95.79714630887149
2.0,0.33336044141957516,0.2736981990369408,99.30916937028441
2.01,0.31967819054044266,0.32293004001854847,104.44820785469784
2.02,0.3416914119548692,0.2624127792034014,109.28407576339688
2.03,0.25132774614868736,0.26183458881344773,113.26749934744021
2.04,0.17881181648928507,0.13431148614034058,115.73566450502084
2.05,0.05041149323911488,0.10583025582040229,117.20574457118097
2.06,0.002858070183641013,-0.002719636278670799,117.99101580749216
2.07,-0.08154621523962975,0.011520978881298346,118.23771343282837
2.08,-0.08452590543108528,-0.06794807804899564,118.08077807598798
2.09,-0.12554225306652916,-0.027025047115610618,117.56479364516429
2.1,-0.09404267104257077,-0.07270208792194774,116.93645776569349
2.11,-0.13150163344944021,-0.027025047115610618,116.09471357900415
2.12,-0.10474523173024776,-0.08456569814544083,114.82674722998692
2.13,-0.1380387088694702,-0.030579847290881115,113.26749934744021
2.14,-0.10355943665405627,-0.0786338930336943,111.6178947442884
2.15,-0.13624481375420616,-0.034156061925038776,109.81135478429623
2.16,-0.10532292676736668,-0.08161050281901115,107.9935202342284
2.17,-0.1356367137151336,-0.03295685222735717,106.50144544002623
2.18,-0.10176554153879223,-0.08101089797017035,105.18889518281573
2.19,-0.13150163344944021,-0.03237866183740353,104.02198569236997
2.2,-0.10057974646260075,-0.08456569814544083,103.30388754440335
2.21,-0.13089353341036766,-0.028802447203245866,102.88836552004187
2.22,-0.09522846611876226,-0.0792334978825351,102.77660852350402
2.23,-0.12909963829510362,-0.034734252314992414,102.50732171801653
2.24,-0.10057974646260075,-0.08694270308191689,101.55322608268008
2.25,-0.1285219432579847,-0.030579847290881115,100.38631659223434
2.26,-0.10474523173024776,-0.08812049832071134,99.55586699562062
2.27,-0.13682250879132507,-0.04244345751437421,99.06247174494818
2.28,-0.11067420711120518,-0.09405230343245788,98.92753111614982
2.29,-0.14217378913516357,-0.04424227206089663,99.08506092509946
2.3,-0.11186000218739667,-0.08931970801839294,99.4999884973517
2.31,-0.14576157936569165,-0.04244345751437421,99.84774298125937
2.32,-0.11544779241792474,-0.09582970352009312,100.49866804088143
2.33,-0.1433899892133087,-0.04364266721205582,101.45216922410863
2.34,-0.11186000218739667,-0.09760710360772837,102.36108649914253
2.35,-0.14217378913516357,-0.045420067299691065,103.14635773545372
2.36,-0.10769451691974966,-0.09287450819366344,104.02198569236997
2.37,-0.1439676842504276,-0.04779707223616712,105.00937064582408
2.38,-0.10891071699789477,-0.09167529849598183,105.69358502356378
2.39,-0.11900517764649919,-0.031179452139721918,105.79464188213525
2.4,-0.05658370863570133,-0.07981168827248873,105.48017671634523
2.41,-0.08513400547015783,-0.03593346201267403,104.9867814656728
2.42,-0.009638385619300012,-0.053728877347913664,104.21280481943725
2.43,0.040894727627629385,0.03880299950355503,103.483412081395
2.44,0.029614471902833474,-0.024648042179134567,103.25870918410081
2.45,0.0010641750683769728,0.0038117736819165532,103.0120115587646
2.46,-0.016753156076448915,-0.048375262626120755,102.24873505049544
2.47,-0.10891071699789477,-0.03948826218794452,100.8125387545622
2.48,-0.11544779241792474,-0.10711512335363259,99.71339680457025
2.49,-0.14813316951807462,-0.04719746738732631,99.70210221449462
2.5,-0.12554225306652916,-0.10413851356831573,99.8251538011081
2.51,-0.1659505006629005,-0.05788328237202497,99.30916937028441
2.52,-0.1386164039065891,-0.10829291859242703,98.44543045555302
2.53,-0.16716670074104562,-0.056684072674343354,97.6934485373595
2.54,-0.1356367137151336,-0.10889252344126783,97.17746410653581
2.55,-0.16357891051051754,-0.05312927249907286,96.91947189112396
2.56,-0.12672804814272065,-0.11244732361653832,96.79582585240124
2.57,-0.18735562203825448,-0.1278657340153019,96.67277426578775
2.58,0.040894727627629385,-0.05195147726027842,96.49324972879609
2.59,0.27273286752404136,0.5180585893984565,95.95467611782112
2.6,0.8398165589611534,0.6586445119927383,95.56174327361092
2.61,0.1859569919483876,0.16099390191375645,95.68538931233364
2.62,-0.21174043360506398,-0.21091100557975356,95.89820316744296
2.63,-0.2848644633035388,-0.1599017645105107,95.89820316744296
2.64,-0.06908016443864236,-0.09998410854420442,95.84232466917403
2.65,-0.0970223612340263,-0.00922963178037098,95.68538931233364
2.66,-0.06549237420811427,-0.0543070677378673,95.44939182496381
2.67,-0.09285687596637929,-0.00922963178037098,95.41610250684616
2.68,-0.05658370863570133,-0.0549066725867081,95.40480791677052
2.69,-0.07619493489579125,0.006188778618392606,95.05705343286284
2.7,-0.03222930207084546,-0.034734252314992414,94.66412058865264
2.71,-0.053026323407126874,0.028138598977743547,94.52917995985428
2.72,-0.014989665963138504,-0.01753844182859358,94.46200687150971
2.73,-0.03460089222322843,0.048289604790572066,94.36095001293826
2.74,0.018303811176083932,0.010921374032457541,94.20401465609787
2.75,0.007601250488406949,0.07737043995935117,93.99060634887931
2.76,0.06111405392679187,0.04235779967882552,93.78908708384563
2.77,0.05694856865914486,0.12184827106800668,93.62085713692962
2.78,0.11937003766994272,0.09694325538222605,93.47462191805562
2.79,0.12292742289851719,0.17701191716136083,93.32898115129086
2.8,0.1972372476731835,0.15743910173848596,93.32898115129086
2.81,0.21447688378089047,0.25292617391638433,93.7439087235431
2.82,0.29234409378413123,0.2286207630794445,95.02316966263595
2.83,0.29234409378413123,0.30335722459567355,98.02990843119154
2.84,0.35774525298638465,0.2665671842275127,102.68684625500819
2.85,0.33336044141957516,0.3157990252091203,107.81399569723675
2.86,0.33454623649576665,0.232175563254715,111.95435463812045
2.87,0.221622059239993,0.2197123481823811,115.11862321562568
2.88,0.15682900007681216,0.0868570452463682,116.84669549719767
2.89,0.030800266979024958,0.06668462497465251,117.65455591366012
2.9,-0.004287105275461519,-0.03593346201267403,118.0023103975678
2.91,-0.07500913981959978,-0.015161436892117526,117.95713203726525
2.92,-0.06014109386427578,-0.08456569814544083,117.74431818215595
2.93,-0.10650872184355817,-0.043043062363215014,117.3400907478701
2.94,-0.07500913981959978,-0.09525151313013949,116.71175486839931
2.95,-0.11721128253123515,-0.04244345751437421,115.645902236525
2.96,-0.08273201031582124,-0.09345269858361707,114.27687902893634
2.97,-0.11602548745504367,-0.04186526712442057,112.58269051759125
2.98,-0.08036042016343826,-0.09227490334482263,110.83262350797723
2.99,-0.11663358749411623,-0.0465978625384855,109.36254344181708
3.0,-0.08391780539201271,-0.10118331824188603,107.9150525558082
3.01,-0.1136538973026607,-0.043043062363215014,106.57991311844643
3.02,-0.07382334474340829,-0.09582970352009312,105.45818198830321
3.03,-0.1136538973026607,-0.04957447232380237,104.62773239168949
3.04,-0.07798883001105529,-0.10118331824188603,104.10045337079016
3.05,-0.1136538973026607,-0.04779707223616712,103.70752052657996
3.06,-0.07382334474340829,-0.09820670845656918,103.22541986598316
3.07,-0.10593102680643925,-0.04482046245085026,102.3836756792938
3.08,-0.07561723985867233,-0.09938450369536361,101.55322608268008
3.09,-0.1136538973026607,-0.05195147726027842,100.91359561313367
3.1,-0.07798883001105529,-0.09760710360772837,100.31914350388978
3.11,-0.11246810222646922,-0.05017407717264317,99.78056989291481
3.12,-0.08154621523962975,-0.10176150863183966,99.43281540900713
3.13,-0.11663358749411623,-0.05195147726027842,99.2645854620911
3.14,-0.08096852020251082,-0.10353890871947492,99.47739931720042
3.15,-0.11900517764649919,-0.05195147726027842,100.03856210832666
3.16,-0.08513400547015783,-0.10711512335363259,100.8125387545622
3.17,-0.1178193825703077,-0.05252966765023205,101.51993676456243
3.18,-0.0875055956225408,-0.11124811391885671,102.27132423064671
3.19,-0.12198486783795472,-0.05788328237202497,103.13565759748732
3.2,-0.09106298085111525,-0.11124811391885671,103.9655127419918
3.21,-0.12615035310560171,-0.05788328237202497,104.5153809430424
3.22,-0.09224877592730674,-0.10711512335363259,104.78466774852988
3.23,-0.12374835795126513,-0.05608446782550255,104.77337315845425
3.24,-0.09106298085111525,-0.10947071383122146,104.62773239168949
3.25,-0.12256256287507365,-0.05550627743554891,104.36974017627765
3.26,-0.08334011035489379,-0.10591591365595097,103.9655127419918
3.27,-0.11602548745504367,-0.0543070677378673,103.337176862521
3.28,-0.06372888409480386,-0.09642930836893393,102.67555166493256
3.29,-0.07324564970628936,-0.03831046694915008,102.11438887380632
3.3,-0.014381565924065948,-0.08456569814544083,101.57581526283136
3.31,-0.037580582414683955,-0.024069851789180932,100.93618479328494
3.32,0.07774558999542627,-0.031779056988562725,100.09444060659558
3.33,0.04566831293434895,0.04235779967882552,99.36564232066257
3.34,0.054576978506761895,-0.04719746738732631,98.80447952953634
3.35,-0.010216080656418939,0.0032121688330757473,98.3556681870572
3.36,-0.03460089222322843,-0.08041129312132954,97.92944602472933
3.37,-0.1178193825703077,-0.059061077610819405,97.57039695074602
3.38,-0.0970223612340263,-0.11244732361653832,97.30111014525853
3.39,-0.13743060883039765,-0.05788328237202497,97.2220480147291
3.4,-0.1083026169588222,-0.11007031868006227,97.17746410653581
3.41,-0.14813316951807462,-0.06083847769845465,96.51524445683812
3.42,-0.1083026169588222,-0.11422472370417357,95.69608945030004
3.43,-0.14694737444188313,-0.0584614727619786,95.39351332669489
3.44,-0.11128230715027773,-0.11244732361653832,95.44939182496381
3.45,-0.14278188917423612,-0.06083847769845465,95.58433245376219
3.46,-0.11839707760742664,-0.16047995490046432,95.59562704383781
3.47,-0.0821543152787023,-0.10889252344126783,95.49457018526635
3.48,0.2655876920649388,0.2831848043239579,95.33704037631672
3.49,0.5919549830351796,0.7060989528867108,95.06775357082924
3.5,0.5984920584552096,0.32766263543261337,94.95599657429139
3.51,-0.08096852020251082,-0.07625688809721824,94.67541517872827
3.52,-0.27592539272917227,-0.22988421615378765,94.28248233451806
3.53,-0.11304579726358814,-0.09525151313013949,94.22660383624914
3.54,-0.03934407252799437,-0.06854768289783644,94.36095001293826
3.55,-0.07443144478248084,-0.01338403680448228,94.46200687150971
3.56,-0.03995217256706692,-0.06617067796136039,94.40612837324079
3.57,-0.0684720643995698,-0.003297826668624434,94.2937769245937
3.58,-0.02389833153555145,-0.0465978625384855,94.1814254759466
3.59,-0.053026323407126874,0.011520978881298346,94.27118774444243
3.6,-0.012009975771682979,-0.034734252314992414,94.28248233451806
3.61,-0.031621202031772905,0.030494189455332426,93.48591650813125
3.62,0.011766735756053958,-0.012805846414528645,92.82369685843355
3.63,-0.006658695427844487,0.056598414838794665,92.7904075403159
3.64,0.048039903086731915,0.01923018408068014,92.91345912692938
3.65,0.0301921669399524,0.0868570452463682,92.75652377008899
3.66,0.08905625072217581,0.06075281986290597,92.49853155467714
3.67,0.08309687033926477,0.13371188129149977,92.58829382317298
3.68,0.1562209000377396,0.11236166578098963,92.72323445197134
3.69,0.15977828526631407,0.20073913760834702,92.76781836016463
3.7,0.24004749042389145,0.18589891759953708,92.89146439888735
3.71,0.2477703609201129,0.2724989893392592,93.37356505948415
3.72,0.3274314660386177,0.2469943688046378,95.64021095203111
3.73,0.32384367580808965,0.3211526399309132,100.5212572210327
3.74,0.38209965955124053,0.2748759942757353,105.95157723897563
3.75,0.33278274638245625,0.3122442250338498,110.42839607369137
3.76,0.3143573151985578,0.207848737958888,114.17641662247411
3.77,0.187720482061698,0.1823441174242666,116.85799008727331
3.78,0.12234972786139825,0.054221409902318614,117.95713203726525
3.79,0.0016722751074495289,0.04177960928887189,118.19312952463508
3.8,-0.015567361000257431,-0.050752267562596806,118.0023103975678
3.81,-0.08096852020251082,-0.02287064209149932,117.86736976876944
3.82,-0.0643065791319228,-0.09167529849598183,117.68784523177777
3.83,-0.10593102680643925,-0.03831046694915008,116.9025739954666
3.84,-0.06789436936245087,-0.08931970801839294,115.37661543103752
3.85,-0.1083026169588222,-0.04126566227557977,113.53678615292769
3.86,-0.06789436936245087,-0.08812049832071134,111.88718154977589
3.87,-0.10413713169117521,-0.03831046694915008,110.67568815113684
3.88,-0.06254308901861237,-0.08931970801839294,109.26148658324563
3.89,-0.0999716464235282,-0.037111257251468466,107.65706034039636
3.9,-0.06193498897953982,-0.08931970801839294,105.90699333078234
3.91,-0.10295133661498372,-0.04066605742673896,104.24609413755492
3.92,-0.06135729394242089,-0.09345269858361707,103.28129836425208
3.93,-0.09641426119495373,-0.037111257251468466,102.83248702177295
3.94,-0.06135729394242089,-0.09227490334482263,102.39497026936944
3.95,-0.09878585134733671,-0.043043062363215014,101.85639665839447
3.96,-0.06254308901861237,-0.09049750325718739,101.25064995907495
3.97,-0.10355943665405627,-0.04066605742673896,100.54325194907472
3.98,-0.06789436936245087,-0.09405230343245788,99.92621065967955
3.99,-0.10769451691974966,-0.040087867036785324,99.36564232066257
4.0,-0.07084365455195277,-0.09405230343245788,98.91683097818343
4.01,-0.11304579726358814,-0.04186526712442057,98.64754417269594
4.02,-0.07202944962814425,-0.09998410854420442,98.25461132848574
4.03,-0.10769451691974966,-0.04364266721205582,97.8842676644268
4.04,-0.07026595951483383,-0.09760710360772837,97.8842676644268
4.05,-0.10769451691974966,-0.04066605742673896,98.43413586547739
4.06,-0.07026595951483383,-0.09405230343245788,99.55586699562062
4.07,-0.11067420711120518,-0.04424227206089663,100.72277648606638
4.08,-0.07859693005012786,-0.09938450369536361,101.79992370801631
4.09,-0.1083026169588222,-0.037111257251468466,102.7873086614704
4.1,-0.07324564970628936,-0.09938450369536361,103.42693913101684
4.11,-0.11009651207408624,-0.04066605742673896,103.37106063274791
4.12,-0.07798883001105529,-0.09760710360772837,103.20283068583188
4.13,-0.1094884120350137,-0.04244345751437421,103.21412527590752
4.14,-0.07382334474340829,-0.09582970352009312,103.24741459402517
4.15,-0.11246810222646922,-0.040087867036785324,103.05659546695789
4.16,-0.0726375496672168,-0.09702891321777474,102.59708398651236
4.17,-0.11128230715027773,-0.04364266721205582,101.77792897997428
4.18,-0.0684720643995698,-0.09287450819366344,100.9587739734362
4.19,-0.10413713169117521,-0.04066605742673896,100.28525973366287
4.2,-0.06372888409480386,-0.09167529849598183,99.72469139464589
4.21,-0.10650872184355817,-0.04424227206089663,99.30916937028441
4.22,-0.06965785947576128,-0.09642930836893393,98.70342267096488
4.23,-0.10650872184355817,-0.040087867036785324,97.97402993292262
4.24,-0.06789436936245087,-0.09287450819366344,97.21134787676272
4.25,-0.10650872184355817,-0.03888865733910371,96.8522988027794
4.26,-0.06965785947576128,-0.09642930836893393,96.72865276405668
4.27,-0.10650872184355817,-0.03593346201267403,96.3024306017288
4.28,-0.06610047424718683,-0.0910971081060282,95.85361925924967
4.29,-0.10295133661498372,-0.03593346201267403,95.62891636195548
4.3,-0.05956339882715685,-0.08812049832071134,95.44939182496381
4.31,-0.08273201031582124,-0.024069851789180932,95.1242265212074
4.32,-0.018547051191712956,-0.08218869320896478,94.79846676534176
4.33,-0.03934407252799437,-0.01871623706738802,94.5743583201568
4.34,0.02246929644373094,-0.059061077610819405,94.54047454992991
4.35,0.0807252801868818,0.04058039959119027,94.60824209038371
4.36,0.0997588114098528,-0.005674831605100487,94.59694750030808
4.37,0.052783083391497856,0.02338458910479144,94.22660383624914
4.38,0.03791503743617386,-0.03651165240262766,93.73261413346746
4.39,-0.0536040184442458,-0.02169284685270488,93.39615423963542
4.4,-0.05421211848331836,-0.08694270308191689,93.36227046940851
4.41,-0.1083026169588222,-0.03295685222735717,93.46332732797998
4.42,-0.07738072997198274,-0.08694270308191689,93.37356505948415
4.43,-0.11721128253123515,-0.03533385716383322,93.16075120437483
4.44,-0.08096852020251082,-0.08812049832071134,92.88016980881173
4.45,-0.12256256287507365,-0.034734252314992414,92.74522918001335
4.46,-0.08631980054634932,-0.08872010316955213,92.85758062866046
4.47,-0.12198486783795472,-0.037111257251468466,92.93604830708065
4.48,-0.07859693005012786,-0.10058371339304523,92.77911295024026
4.49,-0.1451534793266191,-0.1231117241423498,92.47594237452587
4.5,0.11818424259375124,0.03229300400185484,92.22924474918966
4.51,0.3422691069919881,0.6070356660746548,92.03842562212238
4.52,0.9283863296520711,0.6366946916333874,91.94866335362654
4.53,0.16218028042065066,0.10523065097156148,91.89278485535762
4.54,-0.18972721219063746,-0.20260219553153097,91.71326031836597
4.55,-0.19866628276500403,-0.1231117241423498,91.46656269302974
4.56,-0.01973284626790444,-0.06143808254729546,91.43267892280285
4.57,-0.060749193903348334,0.012720188578979958,91.63479263994577
4.58,-0.019124746228831882,-0.034734252314992414,91.66808195806342
4.59,-0.058955298788084295,0.014497588666615206,91.45526810295412
4.6,-0.014381565924065948,-0.029402052052086673,91.21927061558429
4.61,-0.04290145775656882,0.031093794304173233,91.07362984881954
4.62,0.002858070183641013,-0.013983641653323086,90.94998381009681
4.63,-0.019124746228831882,0.051266214575888924,90.81563763340769
4.64,0.03137796201614389,0.010343183642503907,90.68069700460933
4.65,0.009395145603670989,0.07972603043694004,90.33294252070165
4.66,0.06348564407917484,0.04118000444003108,90.1088340755167
4.67,0.0492256981629234,0.11176206093214883,90.22059107205456
4.68,0.10511009175369129,0.07559303987171592,90.299653202584
4.69,0.09081974083548623,0.1515072966267394,90.1873017539369
4.7,0.15977828526631407,0.126002676092118,89.95130426656708
4.71,0.15920059022919514,0.21082534774420486,89.73849041145776
4.72,0.24123328550008294,0.19302993240896524,89.73849041145776
4.73,0.24953385103342332,0.28733920934806917,90.15341798371
4.74,0.3286172611148092,0.2588579790281309,91.48855742107177
4.75,0.3286172611148092,0.33774884556847123,94.66412058865264
4.76,0.40411288096566705,0.3051346246833088,99.83644839118374
4.77,0.3737990940179001,0.3531672559672348,105.5027658964965
4.78,0.39639001046944555,0.2837844091727987,110.21558221858207
4.79,0.2858070183641013,0.2748759942757353,113.58137006112098
4.8,0.2287368296971419,0.1467532867537873,115.4330883814157
4.81,0.09440753106601431,0.12718047133091243,116.4204733348698
4.82,0.060505953887719316,0.013298378968933593,116.79022254681949
4.83,-0.021526741383168478,0.03642599456707897,116.71175486839931
4.84,-0.012587670808801908,-0.03771086210030927,116.26294352592016
4.85,-0.06135729394242089,0.00441137853075736,115.46637769953335
4.86,-0.02924961187938994,-0.053728877347913664,114.46769815600362
4.87,-0.07382334474340829,0.000856578355486866,113.21102639706203
4.88,-0.03399279218415588,-0.05608446782550255,111.55072165594385
4.89,-0.07680303493486382,-0.00922963178037098,109.57595174903564
4.9,-0.031621202031772905,-0.05550627743554891,107.24213276814413
4.91,-0.06789436936245087,-0.0021200314298299933,104.9867814656728
4.92,-0.038158277451802884,-0.05966068245966021,103.0904792371848
4.93,-0.07619493489579125,-0.002719636278670799,101.8338074782432
4.94,-0.03341509714703695,-0.05966068245966021,100.79054402652018
4.95,-0.07738072997198274,-0.0074522316927357335,100.25197041554522
4.96,-0.03341509714703695,-0.06023887284961384,99.7466861226879
4.97,-0.07145175459102532,-0.005674831605100487,98.91683097818343
4.98,-0.03460089222322843,-0.0626158777860899,98.31048982675466
4.99,-0.07084365455195277,-0.00507522675625968,97.74992148773768
5.0,-0.044117657834713934,-0.06559248757140676,97.08770183803998
5.01,-0.08036042016343826,-0.00922963178037098,96.41418759826665
5.02,-0.04052986760418585,-0.06143808254729546,95.94338152774549
5.03,-0.08391780539201271,-0.005674831605100487,95.62891636195548
5.04,-0.04706694302421583,-0.06083847769845465,95.58433245376219
5.05,-0.08334011035489379,-0.00507522675625968,95.72997322052693
5.06,-0.04232376271944989,-0.06023887284961384,96.08902229451024
5.07,-0.08154621523962975,-0.00922963178037098,96.43677677841792
5.08,-0.04113796764325841,-0.06143808254729546,97.21134787676272
5.09,-0.07859693005012786,-0.011007031868006226,98.14225987983865
5.1,-0.04171566268037734,-0.06499288272256595,98.83776884765399
5.11,-0.08036042016343826,-0.01338403680448228,99.46610472712479
5.12,-0.044695352871832864,-0.059061077610819405,100.30784891381414
5.13,-0.08452590543108528,-0.009829236629211787,101.37370154568843
5.14,-0.045881147948024344,-0.067369887659042,102.03592119538612
5.15,-0.08273201031582124,-0.00805183654157654,101.73275061967175
5.16,-0.04052986760418585,-0.06321548263493071,101.29523386726824
5.17,-0.08096852020251082,-0.012805846414528645,101.05983083200766
5.18,-0.04113796764325841,-0.06083847769845465,100.75666025629327
5.19,-0.08571170050727675,-0.01220624156568784,100.4089057723856
5.2,-0.04886083813947987,-0.06321548263493071,100.09444060659558
5.21,-0.0875055956225408,-0.0074522316927357335,99.51128308742733
5.22,-0.0536040184442458,-0.062016272937249095,98.73730644119178
5.23,-0.08273201031582124,-0.00922963178037098,98.28849509871264
5.24,-0.0464892479870969,-0.06559248757140676,97.6934485373595
5.25,-0.0916710808901878,-0.01753844182859358,97.08770183803998
5.26,-0.04767504306328838,-0.06914728774667725,96.380898280149
5.27,-0.0821543152787023,-0.011007031868006226,95.64021095203111
5.28,-0.044117657834713934,-0.06439327787372515,95.04575884278722
5.29,-0.0726375496672168,-0.008651441390417345,94.64153140850136
5.3,-0.006658695427844487,-0.05788328237202497,94.50718523181226
5.31,-0.02687802172700697,0.0014347687454405005,94.31636610474496
5.32,0.017726116138965006,-0.04601967214853187,94.01319552903058
5.33,0.0658572342315578,0.037625204264760584,93.4187434197867
5.34,0.11699844751755976,0.0180523888418857,93.1155728440723
5.35,0.05932015881152783,0.04651220470293682,93.21662970264376
5.36,0.07239430965158779,-0.018138046677434384,93.3402757413665
5.37,-0.02924961187938994,0.010921374032457541,93.25051347287067
5.38,-0.025084126611742932,-0.06439327787372515,92.91345912692938
5.39,-0.08631980054634932,-0.014583246502163891,92.61088300332423
5.4,-0.06193498897953982,-0.06499288272256595,92.52112073482841
5.41,-0.10474523173024776,-0.018138046677434384,92.43135846633258
5.42,-0.07738072997198274,-0.0750790928584238,92.30771242760986
5.43,-0.10891071699789477,-0.011606636716847033,92.18466084099637
5.44,-0.07202944962814425,-0.0756786977072646,92.06101480227365
5.45,-0.11839707760742664,-0.024648042179134567,91.81431717693742
5.46,-0.06965785947576128,-0.0756786977072646,91.67937654813906
5.47,-0.14752506947900207,-0.0786338930336943,91.70196572829033
5.48,0.011766735756053958,-0.045420067299691065,91.67937654813906
5.49,0.24895615599630438,0.47655736807511784,91.52244119129868
5.5,0.8606439852993883,0.6278076911952112,91.3875005625003
5.51,0.33336044141957516,0.1752345170737256,91.24185979573556
5.52,-0.11186000218739667,-0.23759342135316944,91.12950834708846
5.53,-0.2586857566214653,-0.17234356512395743,91.18598129746664
5.54,-0.0274557167641259,-0.08218869320896478,91.10751361904644
5.55,-0.0464892479870969,0.02042939377836175,90.64740768649166
5.56,-0.014381565924065948,-0.027624651964451425,90.38941547107981
5.57,-0.05065473325474391,0.028138598977743547,90.42270478919748
5.58,-0.0048648003125804475,-0.019915446765069632,90.50117246761766
5.59,-0.04171566268037734,0.04235779967882552,90.52376164776894
5.6,0.0016722751074495289,-0.006874041302782099,90.43399937927312
5.61,-0.016753156076448915,0.061930615101700406,90.24318025220582
5.62,0.03615154732286345,0.017452783993044892,90.0410665350629
5.63,0.008787045564598433,0.08092524013462166,89.97389344671834
5.64,0.055762773582953375,0.040002209201236635,89.87283658814688
5.65,0.03791503743617386,0.10938505599567278,89.59225519258376
5.66,0.09857301633366132,0.08152484498346246,89.36814674739881
5.67,0.09203594091363133,0.15566170165085072,89.22250598063407
5.68,0.14907572457863708,0.12244787591684748,89.14344385010462
5.69,0.14670413442625413,0.20667094272009356,89.08756535183569
5.7,0.23053072481240594,0.19302993240896524,88.99780308333987
5.71,0.23588200515624444,0.2790303992998466,88.99780308333987
5.72,0.3214720856557067,0.2564809740916548,89.32296838709628
5.73,0.32208018569477925,0.32944003552024864,90.43399937927312
5.74,0.39757580554563704,0.2997810099615159,93.28380279098832
5.75,0.36604581851972506,0.3442802555290586,98.29919523667903
5.76,0.39757580554563704,0.2760752039734169,103.74140429680685
5.77,0.28401312324883726,0.270721589251624,108.44233157670755
5.78,0.228159134660023,0.13726668146677026,111.96564922819609
5.79,0.09440753106601431,0.11887166128268982,114.11994367209594
5.8,0.0587424637744089,0.013298378968933593,115.16380157592822
5.81,-0.0369724823756114,0.022784984255950633,115.56743455810482
5.82,-0.02687802172700697,-0.04897486747496156,115.47767228960899
5.83,-0.0821543152787023,-0.011007031868006226,114.95039326870966
5.84,-0.04767504306328838,-0.06559248757140676,114.2210005306674
5.85,-0.09285687596637929,-0.011007031868006226,113.30078866555786
5.86,-0.06135729394242089,-0.07270208792194774,111.8425976415826
5.87,-0.09939395138640926,-0.018138046677434384,109.77806546617856
5.88,-0.06254308901861237,-0.0715242926831533,107.42165730513578
5.89,-0.09580616115588118,-0.016938836979752774,104.91960837732825
5.9,-0.05539791355950984,-0.06617067796136039,102.66425707485692
5.91,-0.0999716464235282,-0.02287064209149932,101.12700392035222
5.92,-0.05241822336805432,-0.0667702828102012,99.67951303434334
5.93,-0.0916710808901878,-0.01636064658979914,97.95144075277136
5.94,-0.051840528330935394,-0.06499288272256595,97.1435803363089
5.95,-0.09285687596637929,-0.011007031868006226,97.1435803363089
5.96,-0.05478981352043729,-0.06914728774667725,96.97535038939289
5.97,-0.09048528581399633,-0.016938836979752774,96.4593659585692
5.98,-0.05478981352043729,-0.06439327787372515,95.94338152774549
5.99,-0.10176554153879223,-0.02287064209149932,95.18010501947633
6.0,-0.05658370863570133,-0.067369887659042,94.45071228143408
6.01,-0.10650872184355817,-0.027025047115610618,94.3276606948206
6.02,-0.06135729394242089,-0.07625688809721824,94.05837388933311
6.03,-0.0999716464235282,-0.02169284685270488,93.1940405224925
6.04,-0.06667816928430575,-0.0786338930336943,92.93604830708065
6.05,-0.10237364157786479,-0.024648042179134567,93.5530895964758
6.06,-0.06254308901861237,-0.07387988316074219,94.36095001293826
6.07,-0.10593102680643925,-0.024069851789180932,95.23657796985451
6.08,-0.0726375496672168,-0.07981168827248873,96.2685468315019
6.09,-0.10769451691974966,-0.024069851789180932,97.2220480147291
6.1,-0.07084365455195277,-0.08101089797017035,98.06379220141845
6.11,-0.10295133661498372,-0.023470246940340125,98.72601185111614
6.12,-0.03995217256706692,-0.06974689259551806,99.38763704870459
6.13,-0.05478981352043729,-0.0074522316927357335,100.24067582546958
6.14,-0.009638385619300012,-0.05608446782550255,100.8125387545622
6.15,-0.009638385619300012,0.019829788929520947,100.75666025629327
6.16,0.1163903474784872,0.0138979838177744,100.49866804088143
6.17,0.01891191121515649,0.025161989192426685,100.12832437682248
6.18,0.04624600797146788,-0.030579847290881115,99.43281540900713
6.19,-0.04113796764325841,0.0097435787936631,98.77059575930943
6.2,-0.06254308901861237,-0.08574349338423527,98.26590591856137
6.21,-0.12079907276176323,-0.03295685222735717,97.95144075277136
6.22,-0.08869139069873228,-0.08752089347187053,97.3343994633762
6.23,-0.13743060883039765,-0.03295685222735717,96.25725224142627
6.24,-0.10474523173024776,-0.08989789840834658,95.42680264481255
6.25,-0.15111285970953015,-0.03948826218794452,94.92211280406448
6.26,-0.11128230715027773,-0.08872010316955213,94.74258826707283
6.27,-0.14752506947900207,-0.03651165240262766,94.58565291023244
6.28,-0.10355943665405627,-0.08812049832071134,94.14813615782894
6.29,-0.15229865478572163,-0.06143808254729546,93.68803022527418
6.3,-0.11067420711120518,-0.1759197797581151,93.37356505948415
6.31,0.11341065728703167,0.18827592253601313,93.16075120437483
6.32,0.5015913172289977,0.5512724151324597,93.00322139542521
6.33,0.8594581902231969,0.4368121323805273,93.04839975572774
6.34,0.09203594091363133,-0.07625688809721824,93.00322139542521
6.35,-0.31399245517511426,-0.18658418028392657,92.6780560916688
6.36,-0.1558560400142961,-0.17472057006043348,92.48723696460151
6.37,-0.07917462508724678,-0.011007031868006226,92.39747469610569
6.38,-0.045881147948024344,-0.043043062363215014,92.17336625092074
6.39,-0.09048528581399633,0.010921374032457541,92.03842562212238
6.4,-0.04290145775656882,-0.03533385716383322,92.03842562212238
6.41,-0.08154621523962975,0.023984193953632247,91.97125253377781
6.42,-0.03341509714703695,-0.021093242003864074,91.90407944543325
6.43,-0.06610047424718683,0.034648594479443726,92.0158364419711
6.44,-0.012009975771682979,-0.002719636278670799,92.00513630400471
6.45,-0.044117657834713934,0.054221409902318614,91.7691388166349
6.46,0.009395145603670989,0.016853179144204086,91.58961427964323
6.47,-0.015567361000257431,0.07914784004698641,91.37680042453393
6.48,0.04268862274289342,0.04473480461530157,91.174686707391
6.49,0.029614471902833474,0.11887166128268982,90.97257299024808
6.5,0.0902420457983673,0.08863444533400346,90.79304845325642
6.51,0.08309687033926477,0.1633709068502325,90.47917773957565
6.52,0.16573766564922512,0.14497588666615205,90.35553170085292
6.53,0.17583212629782954,0.23335335849350944,90.6587022765673
6.54,0.2602364117211003,0.21675715285595143,91.09621902897081
6.55,0.26738158718020283,0.2962262097862454,91.83631190497945
6.56,0.3416914119548692,0.26598899383755903,93.59826795677834
6.57,0.3179147004271322,0.3163986300579611,97.41286714179638
6.58,0.3512081775663547,0.25174837867758987,102.66425707485692
6.59,0.26738158718020283,0.26183458881344773,107.45494662325343
6.6,0.217456573972346,0.14557549151499286,111.09061572338908
6.61,0.07418820476685183,0.11829347089273619,113.25620475736457
6.62,0.027242881750450504,0.00441137853075736,114.58004960465071
6.63,-0.0726375496672168,0.011520978881298346,115.61261291840735
6.64,-0.06965785947576128,-0.0626158777860899,115.98236213035705
6.65,-0.1273361481817932,-0.023470246940340125,115.792137455399
6.66,-0.09285687596637929,-0.08218869320896478,115.1745017138946
6.67,-0.13445091863894212,-0.030579847290881115,114.37793588750779
6.68,-0.09878585134733671,-0.08516530299428164,113.43572929435622
6.69,-0.13743060883039765,-0.037111257251468466,112.08929526691881
6.7,-0.09580616115588118,-0.08396609329660003,110.39510675557372
6.71,-0.1356367137151336,-0.03355645707619797,108.5772722055059
6.72,-0.09760005627114522,-0.07745609779489986,106.56861852837079
6.73,-0.1386164039065891,-0.03237866183740353,104.42561867454657
6.74,-0.09580616115588118,-0.08456569814544083,102.84378161184857
6.75,-0.13445091863894212,-0.03000165690092748,101.84510206831884
6.76,-0.09820815631021779,-0.08218869320896478,101.05983083200766
6.77,-0.1380387088694702,-0.03237866183740353,100.49866804088143
6.78,-0.09404267104257077,-0.08218869320896478,100.06115128847793
6.79,-0.1392245039456617,-0.03533385716383322,99.51128308742733
6.8,-0.09404267104257077,-0.0792334978825351,98.81577411961197
6.81,-0.14159609409804463,-0.040087867036785324,98.13096528976301
6.82,-0.09939395138640926,-0.08278829805780559,96.88558812089705
6.83,-0.1398021989827806,-0.034734252314992414,95.52785950338401
6.84,-0.09878585134733671,-0.08218869320896478,94.83235053556866
6.85,-0.14217378913516357,-0.031779056988562725,94.66412058865264
6.86,-0.09939395138640926,-0.07981168827248873,94.85493971571992
6.87,-0.1386164039065891,-0.03888865733910371,95.19139960955196
6.88,-0.10355943665405627,-0.08634309823307608,95.48327559519072
6.89,-0.14159609409804463,-0.034734252314992414,95.81973548902276
6.9,-0.10295133661498372,-0.08574349338423527,96.39219287022463
6.91,-0.14576157936569165,-0.03948826218794452,97.11029101819125
6.92,-0.11009651207408624,-0.0910971081060282,97.96273534284698
6.93,-0.13682250879132507,-0.028802447203245866,98.8716526178809
6.94,-0.07561723985867233,-0.07625688809721824,99.64562926411644
6.95,-0.07738072997198274,-0.014583246502163891,100.16220814704938
6.96,-0.03578668729941992,-0.06143808254729546,100.54325194907472
6.97,-0.02687802172700697,0.009143973944822293,100.65560339772182
6.98,0.0712085145753963,-0.00034263134219474637,100.50996263095706
6.99,-0.014381565924065948,0.015675383905409648,100.39761118230996
7.0,0.011766735756053958,-0.03533385716383322,100.01597292817539
7.01,-0.08631980054634932,-0.00507522675625968,99.08506092509946
7.02,-0.10413713169117521,-0.09049750325718739,98.34437359698157
7.03,-0.15822763016667904,-0.04482046245085026,98.01920829322516
7.04,-0.1285219432579847,-0.09642930836893393,97.46934009217456
7.05,-0.17546726627438602,-0.04897486747496156,96.88558812089705
7.06,-0.14217378913516357,-0.09880631330540998,96.44807136849356
7.07,-0.1802408515811056,-0.05017407717264317,95.89820316744296
7.08,-0.14457578428950016,-0.09760710360772837,95.26986728797216
7.09,-0.18319013677060747,-0.05252966765023205,94.51847982188788
7.1,-0.1398021989827806,-0.10296071832952128,94.01319552903058
7.11,-0.17844695646584152,-0.08396609329660003,93.80038167392127
7.12,-0.10237364157786479,-0.18302938010865608,93.64285186497163
7.13,0.15977828526631407,0.22446635805533321,93.32898115129086
7.14,0.5212025434890877,0.6094126710111307,93.08228352595465
7.15,0.7500609931940441,0.47180335820216573,92.8688752187361
7.16,0.016540321062773523,-0.037111257251468466,92.58829382317298
7.17,-0.35379260273241303,-0.1551477546375586,92.40876928618131
7.18,-0.13150163344944021,-0.13855154900000055,92.34159619783675
7.19,-0.10413713169117521,-0.015761041740958333,92.26312851941657
7.2,-0.07382334474340829,-0.0584614727619786,92.17336625092074
7.21,-0.11663358749411623,-0.013983641653323086,92.2405393392653
7.22,-0.07382334474340829,-0.05788328237202497,92.1620716608451
7.23,-0.10532292676736668,0.00025697350664605976,91.84760649505509
7.24,-0.060749193903348334,-0.043043062363215014,91.64608723002141
7.25,-0.0916710808901878,0.01507577905656884,91.46656269302974
7.26,-0.03934407252799437,-0.021093242003864074,91.25315438581119
7.27,-0.06908016443864236,0.03584780417712534,91.10751361904644
7.28,-0.013773465884993391,-0.001520426580989187,90.99516217039934
7.29,-0.03876637749087544,0.06550682973585807,90.68069700460933
7.3,0.026026681672305395,0.02991599906537879,90.47917773957565
7.31,0.012952530832245441,0.09634365053338524,90.60222932618913
7.32,0.07655979491923479,0.07261643008639906,90.64740768649166
7.33,0.07479630480592438,0.14853068684142254,90.50117246761766
7.34,0.1514777197329737,0.13548928137913502,90.25447484228145
7.35,0.15977828526631407,0.21200314298299933,90.23188566213018
7.36,0.24539877076772995,0.19718433743307653,90.86022154160098
7.37,0.24895615599630438,0.2701433988616703,92.57699923309734
7.38,0.3184923954642512,0.24463877832704892,96.10031688458588
7.39,0.29769537412796976,0.29920281957156225,100.94747938336056
7.4,0.3274314660386177,0.23513075858114468,105.71617420371506
7.41,0.2340881100409804,0.23335335849350944,109.6431248373802
7.42,0.1859569919483876,0.12302606630680112,112.38117125255756
7.43,0.047431803047659364,0.09574404568454443,114.07535976390265
7.44,-0.0018851101211249234,-0.013983641653323086,114.8047525019449
7.45,-0.09285687596637929,-0.00507522675625968,115.05145012728111
7.46,-0.08631980054634932,-0.0786338930336943,115.02886094712986
7.47,-0.1392245039456617,-0.037111257251468466,114.7369849614911
7.48,-0.10295133661498372,-0.08516530299428164,114.27687902893634
7.49,-0.1505047596704576,-0.04719746738732631,113.69372150976807
7.5,-0.11186000218739667,-0.09227490334482263,112.67245278608706
7.51,-0.15287634982284057,-0.04601967214853187,111.00085345489325
7.52,-0.1083026169588222,-0.08931970801839294,109.40772180211962
7.53,-0.1451534793266191,-0.04424227206089663,107.88176323769055
7.54,-0.10711682188263072,-0.08989789840834658,106.41168317153041
7.55,-0.15169055474664908,-0.0465978625384855,104.9867814656728
7.56,-0.10891071699789477,-0.09167529849598183,103.70752052657996
7.57,-0.14813316951807462,-0.04719746738732631,102.67555166493256
7.58,-0.10650872184355817,-0.09465190828129869,101.9122751566634
7.59,-0.1451534793266191,-0.04601967214853187,101.35111236553716
7.6,-0.10532292676736668,-0.09642930836893393,100.91359561313367
7.61,-0.1398021989827806,-0.0465978625384855,100.55454653915035
7.62,-0.10769451691974966,-0.09880631330540998,99.62363453607442
7.63,-0.14278188917423612,-0.0465978625384855,98.22072755825884
7.64,-0.10711682188263072,-0.09642930836893393,97.16616951646017
7.65,-0.14813316951807462,-0.04779707223616712,96.47066054864483
7.66,-0.10650872184355817,-0.09820670845656918,96.05513852428334
7.67,-0.15169055474664908,-0.0543070677378673,95.88690857736732
7.68,-0.10891071699789477,-0.09998410854420442,95.8310300790984
7.69,-0.15169055474664908,-0.053728877347913664,95.88690857736732
7.7,-0.10711682188263072,-0.09880631330540998,96.19007915308171
7.71,-0.14694737444188313,-0.05252966765023205,96.84100421270377
7.72,-0.10650872184355817,-0.09938450369536361,97.54780777059476
7.73,-0.14633927440281058,-0.053728877347913664,98.19873283021681
7.74,-0.10891071699789477,-0.10236111348068047,98.9501202963011
7.75,-0.14871086455519356,-0.05728367752318416,99.61233994599878
7.76,-0.1083026169588222,-0.09820670845656918,100.15091355697375
7.77,-0.14752506947900207,-0.053728877347913664,100.79054402652018
7.78,-0.10532292676736668,-0.09938450369536361,101.04853624193203
7.79,-0.1178193825703077,-0.045420067299691065,100.58843030937726
7.8,-0.044117657834713934,-0.08218869320896478,100.17350273712502
7.81,-0.08273201031582124,-0.03771086210030927,100.07244587855355
7.82,0.002249970144568457,-0.06381508748377152,100.06115128847793
7.83,0.03198606205521644,0.037625204264760584,99.80315907306607
7.84,0.04980339320004233,-0.029402052052086673,99.11835024321711
7.85,0.00048648003125804473,-0.002719636278670799,98.34437359698157
7.86,-0.02566182164886186,-0.05966068245966021,97.6934485373595
7.87,-0.11663358749411623,-0.05608446782550255,97.15487492638454
7.88,-0.10295133661498372,-0.10236111348068047,96.57171740721628
7.89,-0.15704183509048755,-0.05728367752318416,95.7525624006782
7.9,-0.12079907276176323,-0.10353890871947492,95.13552111128304
7.91,-0.1683524958172371,-0.05728367752318416,94.75388285714847
7.92,-0.13207932848655915,-0.10829291859242703,94.49589064173662
7.93,-0.17011598593054753,-0.062016272937249095,94.28248233451806
7.94,-0.12554225306652916,-0.10769331374358622,93.99060634887931
7.95,-0.1659505006629005,-0.06381508748377152,93.631557274896
7.96,-0.12791384321891214,-0.1361745440635245,93.2618080629463
7.97,-0.14457578428950016,-0.15454814978871778,92.88016980881173
7.98,0.16096408034250556,0.13193448120386453,92.65546691151754
7.99,0.44272723344677434,0.6503357019445157,92.74522918001335
8.0,0.8344652786173149,0.4617171480663079,92.68935068174443
8.01,0.01948960625227542,0.0073665738571870466,92.37488551595442
8.02,-0.2902157436473773,-0.21919840116908898,92.2405393392653
8.03,-0.179632751542033,-0.11777952387944407,92.0836039824249
8.04,-0.05421211848331836,-0.07330169277078855,91.6906711382147
8.05,-0.10413713169117521,-0.013983641653323086,91.48855742107177
8.06,-0.06312078405573131,-0.059061077610819405,91.48855742107177
8.07,-0.09939395138640926,-0.01220624156568784,91.42138433272721
8.08,-0.05065473325474391,-0.048375262626120755,91.37680042453393
8.09,-0.07917462508724678,0.009143973944822293,91.47726283099614
8.1,-0.03876637749087544,-0.028802447203245866,91.45526810295412
8.11,-0.06908016443864236,0.019829788929520947,91.21927061558429
8.12,-0.021526741383168478,-0.01636064658979914,90.82693222348333
8.13,-0.044695352871832864,0.04355700937650713,90.52376164776894
8.14,0.007601250488406949,0.0097435787936631,90.46788314950001
8.15,-0.006658695427844487,0.0737942253251935,90.40011560904621
8.16,0.05932015881152783,0.05542061960000023,90.20989093408816
8.17,0.047431803047659364,0.11947126613153063,89.89542576829814
8.18,0.12055583274613421,0.10405285573276704,89.6713173231132
8.19,0.12472131801378122,0.18472112236074265,89.5250821042392
8.2,0.21329108870469898,0.17818971240015527,89.70460664123085
8.21,0.21982816412472897,0.25352577876522514,90.46788314950001
8.22,0.30186085939561674,0.23690815866877993,92.25183392934093
8.23,0.2959014790127057,0.30691202477094404,95.79714630887149
8.24,0.3553736628340017,0.263611988901083,100.67819257787308
8.25,0.31374921515948523,0.29920281957156225,105.35712512973174
8.26,0.3066040397003827,0.21497975276831618,109.16042972467416
8.27,0.17820371645021252,0.18767631768717233,111.90977072992716
8.28,0.11699844751755976,0.06372942964822283,113.33467243578477
8.29,-0.0031013101992700353,0.05006700487820731,113.88454063683535
8.3,-0.028063816803198454,-0.043043062363215014,113.98559749540682
8.31,-0.10057974646260075,-0.025247647027975374,113.92912454502866
8.32,-0.08096852020251082,-0.08041129312132954,113.74960000803699
8.33,-0.12615035310560171,-0.03888865733910371,113.3120832556335
8.34,-0.0946203660796897,-0.08694270308191689,112.56069578954921
8.35,-0.1380387088694702,-0.04779707223616712,111.52813247579257
8.36,-0.09580616115588118,-0.08931970801839294,110.28275530692663
8.37,-0.13445091863894212,-0.04424227206089663,108.85785360106902
8.38,-0.0946203660796897,-0.08694270308191689,107.29801126641306
8.39,-0.13207932848655915,-0.04364266721205582,105.76075811190834
8.4,-0.09285687596637929,-0.08694270308191689,104.26868331770618
8.41,-0.13326512356275064,-0.04601967214853187,102.9335438803444
8.42,-0.09343457100349822,-0.08752089347187053,101.96874810704156
8.43,-0.13089353341036766,-0.045420067299691065,101.30652845734387
8.44,-0.08926908573585121,-0.09345269858361707,100.93618479328494
8.45,-0.1273361481817932,-0.0465978625384855,100.93618479328494
8.46,-0.09285687596637929,-0.09405230343245788,100.39761118230996
8.47,-0.1273361481817932,-0.04897486747496156,98.82706870968761
8.48,-0.08869139069873228,-0.09287450819366344,97.78321080585533
8.49,-0.1302854333712951,-0.04957447232380237,97.34569405345184
8.5,-0.0946203660796897,-0.09525151313013949,96.76253653428357
8.51,-0.12909963829510362,-0.050752267562596806,96.39219287022463
8.52,-0.09285687596637929,-0.09287450819366344,96.36960369007336
8.53,-0.13682250879132507,-0.053728877347913664,96.41418759826665
8.54,-0.0946203660796897,-0.09167529849598183,96.44807136849356
8.55,-0.13624481375420616,-0.05195147726027842,96.44807136849356
8.56,-0.0999716464235282,-0.09465190828129869,96.80712044247686
8.57,-0.13445091863894212,-0.05135187241143761,97.68215394728387
8.58,-0.10237364157786479,-0.09880631330540998,98.64754417269594
8.59,-0.1356367137151336,-0.05550627743554891,99.46610472712479
8.6,-0.09939395138640926,-0.09880631330540998,100.13961896689811
8.61,-0.14278188917423612,-0.056684072674343354,100.5997248994529
8.62,-0.10355943665405627,-0.09820670845656918,100.76795484636891
8.63,-0.1398021989827806,-0.0549066725867081,100.8125387545622
8.64,-0.09939395138640926,-0.09287450819366344,100.82383334463783
8.65,-0.1380387088694702,-0.053728877347913664,100.9248902032093
8.66,-0.09404267104257077,-0.09405230343245788,100.70078175802435
8.67,-0.1302854333712951,-0.05135187241143761,99.9713890199821
8.68,-0.09106298085111525,-0.09525151313013949,99.24199628193985
8.69,-0.12672804814272065,-0.05252966765023205,98.63624958262032
8.7,-0.07917462508724678,-0.08634309823307608,98.20943296818321
8.71,-0.08452590543108528,-0.0465978625384855,97.74992148773768
8.72,-0.026269921687934416,-0.07387988316074219,97.12158560826688
8.73,-0.06014109386427578,-0.034156061925038776,96.48195513872045
8.74,0.07300240969066034,-0.03593346201267403,95.89820316744296
8.75,0.03554344728379089,0.03524819932828453,95.21398878970324
8.76,0.054576978506761895,-0.03237866183740353,94.83235053556866
8.77,-0.012009975771682979,0.0032121688330757473,94.93340739414012
8.78,-0.03460089222322843,-0.0715242926831533,94.84364512564429
8.79,-0.1178193825703077,-0.05788328237202497,94.34965542286263
8.8,-0.09522846611876226,-0.09227490334482263,93.6654410451229
8.81,-0.14278188917423612,-0.05608446782550255,93.18274593241686
8.82,-0.11009651207408624,-0.09702891321777474,93.02581057557647
8.83,-0.1505047596704576,-0.05966068245966021,92.98122666738318
8.84,-0.1178193825703077,-0.10296071832952128,92.82369685843355
8.85,-0.15229865478572163,-0.06439327787372515,92.40876928618131
8.86,-0.11246810222646922,-0.10353890871947492,92.15077707076946
8.87,-0.14576157936569165,-0.0667702828102012,92.19536097896275
8.88,-0.13326512356275064,-0.16225735498809957,92.26312851941657
8.89,-0.045881147948024344,-0.056684072674343354,92.20665556903839
8.9,0.2667734871411303,0.3994439016224127,91.93736876355091
8.91,0.7250984865901157,0.7292265684848561,91.64608723002141
8.92,0.37972806939885756,0.2274215533817629,91.49985201114741
8.93,-0.13505901867801468,-0.13439714397588925,91.41008974265158
8.94,-0.24977709104905235,-0.20320180038037178,91.34291665430702
8.95,-0.0970223612340263,-0.0667702828102012,91.36550583445829
8.96,-0.03876637749087544,-0.05017407717264317,91.25315438581119
8.97,-0.07859693005012786,-0.005674831605100487,90.81563763340769
8.98,-0.04171566268037734,-0.04244345751437421,90.5909347361135
8.99,-0.07084365455195277,0.0020343735942813064,90.6248185063404
9.0,-0.03280699710796439,-0.034156061925038776,90.69199159468496
9.01,-0.05956339882715685,0.010343183642503907,90.68069700460933
9.02,-0.014989665963138504,-0.01636064658979914,90.53505623784457
9.03,-0.04232376271944989,0.03287119439180848,90.31035334055038
9.04,0.0040438652598324965,0.0014347687454405005,90.09753948544108
9.05,-0.015567361000257431,0.05542061960000023,89.98518803679397
9.06,0.04268862274289342,0.034070404089490094,89.83954727002921
9.07,0.030800266979024958,0.09218924550927395,89.62613896281066
9.08,0.08905625072217581,0.07737043995935117,89.42402524566774
9.09,0.08251917530214584,0.14024329125208712,89.21121139055843
9.1,0.1520554147700926,0.13371188129149977,89.1214491220626
9.11,0.15920059022919514,0.2036943329347767,89.13274371213824
9.12,0.24181098053720188,0.20251653769598227,89.36814674739881
9.13,0.25075005111156845,0.2719207989493056,90.24318025220582
9.14,0.3303807512281196,0.2683445843151479,92.6334721834755
9.15,0.3274314660386177,0.3193538253843908,96.82970962262813
9.16,0.3761706841702831,0.280208194538641,102.00203742515923
9.17,0.3309888512671922,0.3039354149856272,106.73684847528682
9.18,0.29948926924323377,0.21200314298299933,110.17040385827953
9.19,0.17406863618451912,0.1716797168984551,112.26881980391046
9.2,0.11520455240229571,0.06312982479938202,113.36855620601166
9.21,0.00048648003125804473,0.03880299950355503,113.83936227653282
9.22,-0.022104436420287407,-0.043043062363215014,113.98559749540682
9.23,-0.07561723985867233,-0.019315841916228826,114.20970594059177
9.24,-0.058377603750965366,-0.06499288272256595,113.76089459811263
9.25,-0.09820815631021779,-0.03651165240262766,112.1338791751121
9.26,-0.06372888409480386,-0.07330169277078855,111.01214804496888
9.27,-0.09878585134733671,-0.03831046694915008,110.31663907715352
9.28,-0.0672862693233783,-0.07745609779489986,109.07066745617833
9.29,-0.10176554153879223,-0.04126566227557977,107.56729807190054
9.3,-0.06549237420811427,-0.074479488009583,106.07522327769837
9.31,-0.09641426119495373,-0.03355645707619797,104.22350495740365
9.32,-0.06014109386427578,-0.07032508298547169,102.37238108921817
9.33,-0.09048528581399633,-0.03000165690092748,100.734071076142
9.34,-0.058955298788084295,-0.07387988316074219,99.8251538011081
9.35,-0.09106298085111525,-0.034734252314992414,99.48869390727606
9.36,-0.05421211848331836,-0.06854768289783644,99.21940710178858
9.37,-0.08869139069873228,-0.03295685222735717,98.91683097818343
9.38,-0.057769503711892815,-0.07387988316074219,98.37825736720846
9.39,-0.0916710808901878,-0.03888865733910371,97.51392400036785
9.4,-0.058377603750965366,-0.07330169277078855,96.41418759826665
9.41,-0.0916710808901878,-0.03831046694915008,95.6063271818042
9.42,-0.057191808674773886,-0.07685649294605905,95.48327559519072
9.43,-0.09404267104257077,-0.04066605742673896,95.99926002601441
9.44,-0.06135729394242089,-0.07745609779489986,96.2239629233086
9.45,-0.09048528581399633,-0.03771086210030927,96.02184920616568
9.46,-0.0643065791319228,-0.07745609779489986,95.89820316744296
9.47,-0.0916710808901878,-0.04126566227557977,96.14490079277917
9.48,-0.0560060135985824,-0.0750790928584238,96.91947189112396
9.49,-0.08334011035489379,-0.03593346201267403,97.8842676644268
9.5,-0.05658370863570133,-0.07625688809721824,98.65824431066234
9.51,-0.08808329065965972,-0.03948826218794452,99.35434773058694
9.52,-0.057191808674773886,-0.07330169277078855,99.93750524975519
9.53,-0.0946203660796897,-0.04364266721205582,100.33043809396541
9.54,-0.06254308901861237,-0.0786338930336943,100.62231407960415
9.55,-0.09404267104257077,-0.04244345751437421,100.94747938336056
9.56,-0.06014109386427578,-0.0792334978825351,101.00335788162948
9.57,-0.08689749558346824,-0.03888865733910371,100.68948716794871
9.58,-0.06135729394242089,-0.07685649294605905,100.06115128847793
9.59,-0.08571170050727675,-0.04186526712442057,99.38763704870459
9.6,-0.04946893817855243,-0.06914728774667725,98.8716526178809
9.61,-0.06491467917099535,-0.025247647027975374,98.3217844168303
9.62,-0.009638385619300012,-0.0626158777860899,97.60368626886368
9.63,-0.0274557167641259,-0.01871623706738802,96.68347440375413
9.64,0.02246929644373094,-0.05017407717264317,96.11161147466152
9.65,0.09081974083548623,0.03822480911360139,95.9094977575186
9.66,0.10511009175369129,0.013298378968933593,95.68538931233364
9.67,0.06527953919443888,0.018630579231839334,95.29245646812343
9.68,0.04208052270382087,-0.023470246940340125,94.75388285714847
9.69,-0.04171566268037734,-0.030579847290881115,94.23789842632478
9.7,-0.044695352871832864,-0.0715242926831533,93.87884935234146
9.71,-0.09224877592730674,-0.040087867036785324,93.64285186497163
9.72,-0.06549237420811427,-0.07387988316074219,93.4187434197867
9.73,-0.10711682188263072,-0.04601967214853187,93.3402757413665
9.74,-0.08036042016343826,-0.07981168827248873,93.10427825399667
9.75,-0.10891071699789477,-0.04779707223616712,92.55441005294607
9.76,-0.0821543152787023,-0.07803428818485349,92.2405393392653
9.77,-0.10769451691974966,-0.04482046245085026,92.20665556903839
9.78,-0.07680303493486382,-0.08989789840834658,92.21795015911403
9.79,-0.1392245039456617,-0.12075613366476093,92.17336625092074
9.8,0.09203594091363133,0.03347079924064929,92.06101480227365
9.81,0.32208018569477925,0.5494950150448245,91.89278485535762
9.82,0.9361396051502462,0.5690678304676994,91.71326031836597
9.83,0.20851750339797942,0.03880299950355503,91.66808195806342
9.84,-0.15229865478572163,-0.24234743122612154,91.58961427964323
9.85,-0.20164597295645953,-0.17472057006043348,91.39879515257594
9.86,-0.006050595388771931,-0.06381508748377152,91.21927061558429
9.87,-0.029827306916508867,0.0032121688330757473,91.10751361904644
9.88,-0.011401875732610424,-0.03000165690092748,91.07362984881954
9.89,-0.044695352871832864,0.00441137853075736,91.01775135055061
9.9,-0.012587670808801908,-0.02169284685270488,90.91669449197916
9.91,-0.0274557167641259,0.025161989192426685,90.80434304333205
9.92,0.011766735756053958,-0.00034263134219474637,90.57964014603786
9.93,-0.006050595388771931,0.04415661422534794,90.09753948544108
9.94,0.03496575224667196,0.018630579231839334,89.94060412860068
9.95,0.020097706291347973,0.06490722488701726,90.20989093408816
9.96,0.060505953887719316,0.04948881448825368,90.32164793062601
9.97,0.05396887846768934,0.08863444533400346,90.19859634401253
9.98,0.10331619663842725,0.08152484498346246,90.00777721694524
9.99,0.09915071137078024,0.13726668146677026,89.76107959160903
