time_s,ECG1,ECG2,NIBP
0.0,0.0067790392493782894,-0.04967689639152164,81.9908443985182
0.01,0.09377670961639968,-0.01551392990756694,81.68728703310347
0.02,0.09894169190164027,-0.01667747465063446,81.92312775546415
0.03,0.06940444945792058,-0.030575370192829843,81.91223082439798
0.04,-0.0042772509549648735,-0.03577900084932625,81.75500367615753
0.05,-0.07327818617185104,-0.07976745627474001,81.5868795968509
0.06,-0.09821536626777831,-0.07456382561824361,81.35103887449024
0.07,-0.12024724382825776,-0.0867164040458377,81.03658457800934
0.08,-0.1237174663011538,-0.07976745627474001,80.66608892175957
0.09,-0.13009299130949767,-0.09250180707386788,80.38510377069619
0.1,-0.12662276883660162,-0.0867164040458377,80.03718032879777
0.11,-0.19852900658893563,-0.09599244130307044,79.68925688689936
0.12,-0.2525192120393413,-0.1301230870997177,79.2627198708807
0.13,0.18133929992086925,0.1199420705978769,78.88132728356477
0.14,1.8093578567983484,0.18939922762154637,78.52172855838117
0.15,1.2438729994127093,0.28203031744464396,78.16290818541657
0.16,-0.009442233240205475,0.018067264204853998,77.75894338374928
0.17,-0.09878028620522651,-0.04389149336349147,77.34330329879681
0.18,-0.08489939631364239,-0.06415656430525078,76.98448292583222
0.19,-0.1324333739074973,-0.07107319138904104,76.68092556041749
0.2,-0.1376790590409448,-0.06645133310407839,76.37814654722177
0.21,-0.14921956633452926,-0.0716549637605748,76.0527953196747
0.22,-0.13993873879073757,-0.05371698230495053,75.72666573990863
0.23,-0.14865464639708106,-0.06819665021867967,75.44645894106426
0.24,-0.13824397897839297,-0.050258668763055396,75.17714907328606
0.25,-0.15446525146797674,-0.06008415770451446,74.91873613657404
0.26,-0.14058436157639262,-0.04734980690538659,74.64942626879585
0.27,-0.14058436157639262,-0.05371698230495053,74.38011640101764
0.28,-0.12896315143460127,-0.045022717419251554,74.07655903560293
0.29,-0.1138717188199139,-0.05546229941955181,73.76210473912202
0.3,-0.10572073115101857,-0.02071756056406335,73.38071215180608
0.31,-0.07852387130529852,-0.01842279176523574,73.02189177884149
0.32,-0.04366024087992446,0.0001292827492297245,72.69576219907542
0.33,-0.0274389683903407,0.005332913405726136,72.49416897435127
0.34,0.01428440413261854,0.03775056277507955,72.53853505083497
0.35,0.06940444945792058,0.053361454744568784,73.27952636333451
0.36,0.1355000821393589,0.09447336899962118,75.50250030083313
0.37,0.19643073253555662,0.09680045848575622,79.73440131560206
0.38,0.26252636521699496,0.13267642139700475,85.39224359560119
0.39,0.3222464728900894,0.14773786168226766,90.84771429865717
0.4,0.35065387545891274,0.15003263048109527,95.09051224449226
0.41,0.3089305029359535,0.09851345491305007,98.0653744255566
0.42,0.21668714743548462,0.05743386134530511,99.8501360637514
0.43,0.11814896977487876,-0.006237892650334207,100.70321009578869
0.44,0.030505676622202303,-0.03865554201968763,100.81607116754546
0.45,-0.03324957346123637,-0.07456382561824361,100.40043108259297
0.46,-0.07093780357385139,-0.08438931455970267,99.61507369360974
0.47,-0.08780469884909023,-0.10294138907416812,98.66081387310088
0.48,-0.08836961878653841,-0.08787994878890523,97.82953370319593
0.49,-0.0941802238574341,-0.09654189298729676,97.12278988833292
0.5,-0.09474514379488229,-0.0867164040458377,96.48298436430495
0.51,-0.08602923618853878,-0.09828721010189805,95.74199305180541
0.52,-0.08199409377819455,-0.0867164040458377,94.95585731060316
0.53,-0.07618348870729888,-0.10061429958803308,94.20396906703745
0.54,-0.08199409377819455,-0.09075648995926659,93.48554996888926
0.55,-0.0750536488324025,-0.10061429958803308,92.82317223050994
0.56,-0.07674840864474707,-0.09075648995926659,92.20593892083333
0.57,-0.07852387130529852,-0.10985801615795839,91.56613339680536
0.58,-0.07674840864474707,-0.09250180707386788,90.85861122972334
0.59,-0.07150272351129958,-0.10119607195956686,90.07325384074011
0.6,-0.07674840864474707,-0.09828721010189805,89.08552487481371
0.61,-0.07327818617185104,-0.10119607195956686,87.89542433194418
0.62,-0.06633774122605898,-0.08613463167430395,86.5932410695369
0.63,-0.06456227856550752,-0.10235961670263437,85.380568312316
0.64,-0.06746758110095535,-0.09424712418846916,84.29165355791804
0.65,-0.06633774122605898,-0.10639970261606325,83.40511038046324
0.66,-0.06512719850295572,-0.0988689824734318,82.69758821338121
0.67,-0.06222189596750787,-0.10523615787299574,82.15896847782483
0.68,-0.06456227856550752,-0.09075648995926659,81.77757589050888
0.69,-0.06399735862805933,-0.10294138907416812,81.49659073944551
0.7,-0.059316593432060034,-0.10003252721649933,81.31756972907272
0.71,-0.0414005611301317,-0.10119607195956686,81.21638394060113
0.72,-0.0019368683569652256,-0.08209454576087505,81.21638394060113
0.73,0.011944021534618892,-0.09712366535883053,81.28332223143619
0.74,0.049067331709785715,-0.056044071791085566,81.38450801990776
0.75,0.14308614987080603,-0.04156440387735642,81.42965244861047
0.76,0.12968947706846323,-0.033451911363191214,81.37361108884159
0.77,0.08562572194750435,-0.06124770244758198,81.21638394060113
0.78,0.0009684341784826128,-0.07689091510437865,81.02568764694317
0.79,-0.03437941333613276,-0.11334865038716095,80.87935742976889
0.8,-0.0605271361551633,-0.09770543773036429,80.74470249587979
0.81,-0.069807963698955,-0.10872679210219831,80.50886177351911
0.82,-0.08199409377819455,-0.09828721010189805,80.19440747703823
0.83,-0.07787824851964345,-0.10985801615795839,79.86905624949115
0.84,-0.08312393365309094,-0.09654189298729676,79.54370502194408
0.85,-0.1753672891535598,-0.13186840421431897,79.22925072546319
0.86,-0.22177142687251833,-0.1301230870997177,78.88132728356477
0.87,0.444027070834278,0.18652268645118503,78.49993469624883
0.88,2.105698715414028,0.16742116025249323,78.08429461129636
0.89,1.0014416433992286,0.20213357842067425,77.68032980962906
0.9,-0.035589956059236025,-0.0190045641367695,77.2981588700941
0.91,-0.054716531084267626,-0.0693601949617472,76.93933849712951
0.92,-0.0414005611301317,-0.06528778836101087,76.56884284087974
0.93,-0.0750536488324025,-0.0896252659035065,76.1874502535638
0.94,-0.08368885359053913,-0.08787994878890523,75.8278515283802
0.95,-0.08368885359053913,-0.08846172116043899,75.54764472953583
0.96,-0.08142917384074636,-0.07572737036131112,75.33437622152651
0.97,-0.0750536488324025,-0.08904349353197274,75.08686021588066
0.98,-0.07674840864474707,-0.07340028087517608,74.71636455963089
0.99,-0.06690266116350717,-0.06703310547561216,74.38011640101764
1.0,-0.06456227856550752,-0.05138989281881549,74.12170346430563
1.01,-0.055846370959164005,-0.06470601598947712,73.89753802523013
1.02,-0.05003576588826833,-0.04389149336349147,73.58308372874923
1.03,-0.03793033865723567,-0.04676803453385284,73.16744364379676
1.04,-0.013558078498756579,-0.02708473596362728,72.74090662777812
1.05,0.016059866793169997,-0.02592119122055976,72.38208625481353
1.06,0.030505676622202303,0.003587596291124855,72.11199803481632
1.07,0.06762898679736913,0.006496458148793656,71.88783259574083
1.08,0.10886814223108705,0.04469951054617725,71.8543634503233
1.09,0.16737770718107825,0.061473947258734,72.37041097152834
1.1,0.22596797497927631,0.1008405443991851,74.20031703842585
1.11,0.2950496130443694,0.1170332087402081,78.00568103717613
1.12,0.3500889555214645,0.15003263048109527,83.4160073115294
1.13,0.40117385843642234,0.1419524586542375,88.97266380305696
1.14,0.4161845882029029,0.14541077219613263,93.45208082347175
1.15,0.3622750856007041,0.09967699965611759,96.58417015277654
1.16,0.25849122280665077,0.05048491357420742,98.54795280134412
1.17,0.16221272489583766,-0.01725924702216822,99.49131569078682
1.18,0.06762898679736913,-0.03981908676275515,99.61507369360974
1.19,0.021870471864065672,-0.09133826233080036,99.17686139430592
1.2,-0.019933603507100446,-0.07630914273284488,98.36893179097133
1.21,-0.0367197959341324,-0.10177784433110061,97.39209975611112
1.22,-0.0512463086113716,-0.08034922864627378,96.50555657865631
1.23,-0.03849525859468386,-0.0936653518169354,95.74199305180541
1.24,-0.05003576588826833,-0.08729817641737146,95.00100173930586
1.25,-0.04834100607592376,-0.10930856447373206,94.28258264115767
1.26,-0.04543570354047592,-0.08380754218816891,93.55326661194331
1.27,-0.03793033865723567,-0.10003252721649933,92.8457444448613
1.28,-0.04487078360302773,-0.08034922864627378,92.1273253467131
1.29,-0.03793033865723567,-0.09192003470233412,91.38633403421356
1.3,-0.048905926013371945,-0.09599244130307044,90.64534272171402
1.31,-0.04019001840702843,-0.09712366535883053,89.93859890685101
1.32,-0.047211166201027374,-0.0867164040458377,89.17503538000011
1.33,-0.03962509846958024,-0.0988689824734318,88.22077555949124
1.34,-0.04834100607592376,-0.08904349353197274,87.06492251425824
1.35,-0.04253040100502808,-0.09828721010189805,85.76273925185096
1.36,-0.04777608613847557,-0.08729817641737146,84.51659734921255
1.37,-0.04947084595082014,-0.10119607195956686,83.4160073115294
1.38,-0.04366024087992446,-0.07918568390320625,82.45085055995438
1.39,-0.04600062347792411,-0.09424712418846916,81.65381788768596
1.4,-0.0465655434153723,-0.0786039115316725,81.03658457800934
1.41,-0.0512463086113716,-0.10119607195956686,80.57657841657317
1.42,-0.057621833619715464,-0.08613463167430395,80.2955932655098
1.43,-0.054716531084267626,-0.10930856447373206,80.115793902918
1.44,-0.06286751875316295,-0.08438931455970267,79.99281425231408
1.45,-0.04430586366557954,-0.09192003470233412,79.94766982361138
1.46,-0.035589956059236025,-0.0693601949617472,80.01538646666543
1.47,0.028810916809857732,-0.08380754218816891,80.13836611726934
1.48,0.024130151613858435,-0.06819665021867967,80.21697969138957
1.49,0.11871388971232695,-0.05429875467648429,80.18351054597206
1.5,0.1500265948165981,-0.03173891493589737,80.08232475750047
1.51,0.1367106248624622,-0.043309720991957706,79.99281425231408
1.52,0.07230975199336842,-0.04734980690538659,79.91420067819385
1.53,0.000403514241034422,-0.10235961670263437,79.75697352995341
1.54,-0.029779350988340343,-0.08267631813240882,79.55460195301025
1.55,-0.0465655434153723,-0.10407261312992822,79.30786429958341
1.56,-0.06633774122605898,-0.09308357944540163,79.0050852863877
1.57,-0.05358669120937124,-0.10465438550146199,78.65638349227027
1.58,-0.061656976030059686,-0.08729817641737146,78.28666618823951
1.59,-0.0894994586614348,-0.11102156090102591,77.91617053198974
1.6,-0.1944938641785914,-0.1399808967284842,77.55657180680613
1.61,-0.006536930704757637,0.023270894861350408,77.18607615055636
1.62,1.3186845397004912,0.22298042173396732,76.79300827995523
1.63,1.8197685242170363,0.25714338821792204,76.41161569263929
1.64,0.3205517130777448,0.054524999487636304,76.01854782203817
1.65,-0.07787824851964345,-0.05255343756188301,75.68229966342493
1.66,-0.012993158561308388,-0.056044071791085566,75.35617008365885
1.67,-0.047211166201027374,-0.09192003470233412,74.99734971069427
1.68,-0.06803250103840355,-0.06819665021867967,74.61595712337832
1.69,-0.061656976030059686,-0.07976745627474001,74.27893061254608
1.7,-0.06633774122605898,-0.06182947481911574,74.03219295911923
1.71,-0.05875167349461184,-0.0786039115316725,73.80724916782472
1.72,-0.06286751875316295,-0.05371698230495053,73.56051151439789
1.73,-0.054151611146819434,-0.06703310547561216,73.26862943226834
1.74,-0.05705691368226727,-0.04560448979078532,72.9767473501388
1.75,-0.03615487599668421,-0.05662584416261933,72.69576219907542
1.76,-0.035589956059236025,-0.032288366620123694,72.41555540023104
1.77,-0.022273986105100094,-0.04967689639152164,72.1236733181015
1.78,-0.009442233240205475,-0.0160957022791007,71.78664680726925
1.79,0.016624786730618187,-0.02071756056406335,71.41615115101948
1.8,0.03171621934530557,0.006496458148793656,71.05733077805489
1.81,0.07400451180571299,0.008209454576087506,70.75377341264016
1.82,0.10071715456219174,0.046412506973471095,70.55218018791602
1.83,0.16334256477073403,0.05972863014413272,70.67515983851993
1.84,0.21902753003348427,0.10200408914225263,71.60684744467744
1.85,0.2944039902587143,0.12052384296941066,74.1777448240745
1.86,0.3449239732362239,0.15756335062372673,78.78014149509319
1.87,0.406338840721663,0.15756335062372673,84.5391695635639
1.88,0.4319216436032453,0.17724664919395228,89.79226868967673
1.89,0.42264081605945364,0.12514570125437333,93.75485983666746
1.9,0.33967828810277645,0.10316763388532015,96.42694300453608
1.91,0.2463050927274112,0.02905629788938058,97.9307194916675
1.92,0.14365106980825423,0.001842279176523574,98.5144836559266
1.93,0.07634489440371264,-0.05255343756188301,98.35725650768615
1.94,0.024130151613858435,-0.06066593007604822,97.76259541236088
1.95,0.005003576588826833,-0.07802213916013874,96.83090780620337
1.96,-0.013558078498756579,-0.0624112471906495,95.82060662592563
1.97,-0.01008785602586055,-0.08497108693123642,94.96753259388835
1.98,-0.019368683569652257,-0.07281850850364233,94.2265412813888
1.99,-0.009442233240205475,-0.09017471758773284,93.46297775453792
2.0,-0.012347535775653314,-0.06357479193371703,92.64337286791815
2.01,-0.0037123310175166827,-0.08034922864627378,91.8128710502322
2.02,-0.01468791837365296,-0.06299301956218326,91.00494144689762
2.03,-0.004842170892413064,-0.09017471758773284,90.2974192798156
2.04,-0.01412299843620477,-0.05892061296144694,89.63504154143628
2.05,-0.0025017882944134164,-0.08555285930277018,88.95086994092462
2.06,-0.007182553490412712,-0.05313520993341677,88.20987862842507
2.07,0.0020982740533789946,-0.08151277338934129,87.33423238203645
2.08,-0.008312393365309093,-0.05833884058991318,86.25621455870464
2.09,0.0009684341784826128,-0.08151277338934129,85.04432015370277
2.1,-0.0042772509549648735,-0.06008415770451446,83.82075046541571
2.11,0.0015333541159308036,-0.07744036678860497,82.65322213689753
2.12,-0.01008785602586055,-0.0624112471906495,81.57520431356573
2.13,-0.000807028482068844,-0.08787994878890523,80.6995580671771
2.14,-0.01412299843620477,-0.06819665021867967,80.0714278264343
2.15,-0.0019368683569652256,-0.08209454576087505,79.64489081041566
2.16,-0.008877313302757284,-0.06470601598947712,79.31876123064959
2.17,-0.010652775963308742,-0.09075648995926659,79.07202357722274
2.18,0.00734395918682648,-0.04851335164845412,78.91479642898229
2.19,0.06246400451212853,-0.07514559798977737,78.8704303524986
2.2,0.043902349424545115,-0.05720761653415309,78.88132728356477
2.21,0.12855963719356686,-0.05138989281881549,78.92647171226747
2.22,0.18537444233121347,-0.007401437393401727,79.0050852863877
2.23,0.18190421985831745,-0.02708473596362728,79.0945957915741
2.24,0.11580858717687911,-0.029411825449762324,79.1280649369916
2.25,0.024775774399513513,-0.09250180707386788,79.07202357722274
2.26,-0.008877313302757284,-0.07052373970481471,78.89222421463093
2.27,-0.024533665854892858,-0.09017471758773284,78.66805877555544
2.28,-0.04947084595082014,-0.07223673613210856,78.46568719861229
2.29,-0.04487078360302773,-0.0936653518169354,78.32013533365702
2.3,-0.054151611146819434,-0.08034922864627378,78.11776375671387
2.31,-0.06859742097585174,-0.10235961670263437,77.82588167458432
2.32,-0.17883751162645584,-0.1058179302445295,77.4896335159711
2.33,-0.1034610514012258,-0.03810609033546129,77.13003479078749
2.34,0.9811045256510936,0.23051114187659877,76.73696692018636
2.35,2.026771329867695,0.21199138804944073,76.35557433287042
2.36,0.5206140737826113,0.11761498111174186,76.01854782203817
2.37,-0.10636635393667364,-0.04214617624889019,75.6931965944911
2.38,-0.032119733586339995,-0.029993597821296084,75.34527315259268
2.39,-0.03906017853213205,-0.06182947481911574,74.95220528199157
2.4,-0.0802186311176431,-0.05197166519034925,74.60428184009314
2.41,-0.06633774122605898,-0.0693601949617472,74.28982754361225
2.42,-0.08780469884909023,-0.04272794862042394,74.0430898901854
2.43,-0.08255901371564274,-0.07689091510437865,73.78467695347338
2.44,-0.09353460107177902,-0.03636077322086002,73.4593257259263
2.45,-0.07674840864474707,-0.06299301956218326,73.1448714294454
2.46,-0.08368885359053913,-0.02362642242173215,72.84209241624968
2.47,-0.06577282128861078,-0.04734980690538659,72.55021033412014
2.48,-0.07440802604674741,-0.0160957022791007,72.24665296870542
2.49,-0.054716531084267626,-0.033451911363191214,71.95554923879489
2.5,-0.05181122854881979,-0.005106668594574117,71.59595051361129
2.51,-0.028003888327788887,-0.0027795791084390766,71.24802707171285
2.52,-0.022838906042548287,0.02443443960441793,70.90010362981444
2.53,0.024130151613858435,0.03425992854587699,70.57475240226736
2.54,0.04616202917433788,0.06667757791523041,70.29376725120399
2.55,0.11580858717687911,0.08173901820049331,70.23772589143512
2.56,0.15236697741459776,0.1170332087402081,70.68683512180512
2.57,0.2219328325689321,0.132094649025471,72.31436961175947
2.58,0.26890189022533884,0.168002932624027,75.81695459731404
2.59,0.3320922203713293,0.1633487536517569,81.1821364429646
2.6,0.36284000553815227,0.19867526487877912,86.91859229708396
2.61,0.35186441818201597,0.1511961752241628,91.54356118245401
2.62,0.26720713041299426,0.12340038413977203,94.73169187152767
2.63,0.17552869484997358,0.04699427934500485,96.7297220177318
2.64,0.06706406685992093,0.013994857604117677,97.74002319800954
2.65,0.004438656651378642,-0.0351972284777925,97.87467813189863
2.66,-0.06399735862805933,-0.03636077322086002,97.3586306106936
2.67,-0.08199409377819455,-0.0624112471906495,96.40437079018473
2.68,-0.1133067988824657,-0.05546229941955181,95.30378075250158
2.69,-0.1138717188199139,-0.07689091510437865,94.32772706986039
2.7,-0.1184717811677063,-0.046186262162319074,93.53069439759196
2.71,-0.1138717188199139,-0.06877842259021343,92.76713087074107
2.72,-0.13065791124694584,-0.04156440387735642,91.95920126740648
2.73,-0.11443663875736208,-0.05833884058991318,91.15049331185288
2.74,-0.13590359638039334,-0.040400859134288904,90.39860506828718
2.75,-0.1237174663011538,-0.056044071791085566,89.64671682472147
2.76,-0.1422791213887372,-0.03865554201968763,88.92829772657328
2.77,-0.12492800902425706,-0.05255343756188301,88.23245084277643
2.78,-0.1335632137823937,-0.0351972284777925,87.49145953027688
2.79,-0.12605784889915345,-0.05720761653415309,86.62671021495441
2.8,-0.12952807137204947,-0.031157142564363603,85.59383682032534
2.81,-0.1231525463637056,-0.05313520993341677,84.44888070615849
2.82,-0.1335632137823937,-0.03173891493589737,83.21441408680526
2.83,-0.12202270648880921,-0.05138989281881549,82.00174132958438
2.84,-0.14808972645963286,-0.04851335164845412,80.90192964412024
2.85,-0.13477375650549694,-0.06645133310407839,79.99281425231408
2.86,-0.1463142637990814,-0.028248280706694804,79.30786429958341
2.87,-0.13186845397004912,-0.06124770244758198,78.82528592379589
2.88,-0.14348966411184047,-0.0351972284777925,78.49993469624883
2.89,-0.08489939631364239,-0.05429875467648429,78.26409397388815
2.9,-0.08602923618853878,-0.025371739536333433,78.1068668256477
2.91,-0.03962509846958024,-0.03403368373472497,78.11776375671387
2.92,0.052618257030888634,0.012281861176823828,78.28666618823951
2.93,0.056088479503784656,-0.0027795791084390766,78.48825941296364
2.94,0.006214119311930099,0.0030058239195910946,78.62291434685274
2.95,-0.07271326623440284,-0.04676803453385284,78.65638349227027
2.96,-0.14405458404928867,-0.043309720991957706,78.62291434685274
2.97,-0.15155994893252892,-0.06124770244758198,78.49993469624883
2.98,-0.1712514438950087,-0.04560448979078532,78.34270754800838
2.99,-0.17246198661811196,-0.06470601598947712,78.20805261411928
3.0,-0.19102364170569539,-0.044473265735025226,78.07339768023019
3.01,-0.1846481166973515,-0.06182947481911574,77.89359831763838
3.02,-0.28730213961650847,-0.06415656430525078,77.6577575952777
3.03,-0.3110287769893325,-0.08093100101780754,77.37677244421432
3.04,0.23815410505851586,0.15872689536679424,77.07399343101861
3.05,1.8736780268192352,0.13729827968196742,76.73696692018636
3.06,0.8732048175984892,0.2368783172761627,76.40071876157313
3.07,-0.20780983413272733,-0.01031029925107053,76.07458918180704
3.08,-0.22233634680996653,-0.01376861279296566,75.73834102319381
3.09,-0.15043010905763252,-0.03810609033546129,75.37874229801021
3.1,-0.2090203768558306,-0.01842279176523574,75.03081885611178
3.11,-0.18924817904514393,-0.0351972284777925,74.69379234527953
3.12,-0.20837475407017553,-0.02071756056406335,74.42448247750134
3.13,-0.19336402430369504,-0.04214617624889019,74.1777448240745
3.14,-0.20030446924948708,-0.0045248962230403575,73.91933188736247
3.15,-0.18868325910769573,-0.02766650833516104,73.65002201958427
3.16,-0.19336402430369504,0.0006787344334560536,73.40328436615744
3.17,-0.17359182649300836,-0.02129933293559711,73.12229921509406
3.18,-0.18755341923279936,0.018649036576387758,72.77437577319563
3.19,-0.1672163014846645,0.0012605068049898137,72.4381276145824
3.2,-0.16552154167231992,0.023852667232884168,72.14624553245285
3.21,-0.13186845397004912,0.016903719461786478,71.83179123597195
3.22,-0.12202270648880921,0.04699427934500485,71.43872336537083
3.23,-0.09240476119688264,0.042954193431575964,71.03475856370353
3.24,-0.06633774122605898,0.09156450714195237,70.68683512180512
3.25,-0.011782615838205123,0.08752442122852348,70.45099439944444
3.26,0.03752682441620125,0.14886908573802776,70.4735666137958
3.27,0.09321178967895148,0.14424722745306512,71.1803104286588
3.28,0.1447809096831506,0.19634817539264407,73.36981522073991
3.29,0.20627648001679652,0.19405340659381648,77.54567487573996
3.3,0.2416243275314119,0.22298042173396732,83.12412522939985
3.31,0.265996587689891,0.1801555110516211,88.41147185314922
3.32,0.1935254300001088,0.16509407076635818,92.48692407189671
3.33,0.12161919224777479,0.10142231677071886,95.24773939273271
3.34,0.016624786730618187,0.05801563371683887,96.83090780620337
3.35,-0.04309532094247627,0.012281861176823828,97.4816102612975
3.36,-0.11564718148046535,0.005914685777259896,97.38120282504495
3.37,-0.13646851631784152,-0.02708473596362728,96.7748664464345
3.38,-0.1712514438950087,-0.0190045641367695,95.80893134264045
3.39,-0.15850039387832096,-0.04098263150582267,94.77683630023037
3.4,-0.17770767175155947,-0.02071756056406335,93.92376226819309
3.41,-0.15333541159308037,-0.04098263150582267,93.19366788675971
3.42,-0.17649712902845618,-0.0190045641367695,92.46435185754535
3.43,-0.1562407141285282,-0.034615456106258734,91.61127782550807
3.44,-0.17649712902845618,-0.0190045641367695,90.75820379347077
3.45,-0.15390033153052857,-0.04676803453385284,89.94949583791718
3.46,-0.1666513815472163,-0.007401437393401727,89.16413844893394
3.47,-0.15099502899508072,-0.032288366620123694,88.40057492208305
3.48,-0.14921956633452926,-0.001034261993837796,87.60354224981464
3.49,-0.1376790590409448,-0.028248280706694804,86.78393736319487
3.5,-0.15043010905763252,-0.007401437393401727,85.84135282597119
3.51,-0.12896315143460127,-0.028830053078228564,84.7181905739367
3.52,-0.1475248065221847,-0.01376861279296566,83.47282702351728
3.53,-0.13186845397004912,-0.03865554201968763,82.01341661286956
3.54,-0.13993873879073757,-0.01435038516449942,80.46371734481642
3.55,-0.11677702135536173,-0.028248280706694804,79.39737480476981
3.56,-0.0941802238574341,-0.009146754508003008,78.81361064051072
3.57,-0.05003576588826833,-0.031157142564363603,78.57854827036905
3.58,-0.04543570354047592,0.0006787344334560536,78.44311498426094
3.59,0.09256616689329641,0.016903719461786478,78.35360447907455
3.6,0.0734395918682648,0.0302198426324481,78.35360447907455
3.61,0.0589937820392325,0.003587596291124855,78.36527976235973
3.62,-0.0512463086113716,-0.007983209764935488,78.47736248189747
3.63,-0.08780469884909023,-0.03865554201968763,78.66805877555544
3.64,-0.12718768877404982,-0.02129933293559711,78.88132728356477
3.65,-0.11734194129280992,-0.05371698230495053,79.06112664615657
3.66,-0.1463142637990814,-0.02246287767866463,79.13974022027679
3.67,-0.12137708370315414,-0.050258668763055396,79.0945957915741
3.68,-0.13477375650549694,-0.025371739536333433,78.94826557439981
3.69,-0.1898130989825921,-0.05371698230495053,78.78014149509319
3.7,-0.2803616946707164,-0.07976745627474001,78.6003421325014
3.71,0.14187560714770278,0.12110561534094443,78.40964583884342
3.72,1.7356761563854628,0.17782842156548603,78.1520112543504
3.73,1.2635644943751891,0.2860704033580729,77.83755695786951
3.74,-0.06633774122605898,0.052197910001501265,77.5231026613886
3.75,-0.11734194129280992,-0.0016160343653715563,77.25379279361042
3.76,-0.07731332858219525,0.003587596291124855,77.02884900231591
3.77,-0.09765044633033013,-0.028248280706694804,76.82725577759177
3.78,-0.12024724382825776,-0.008564982136469248,76.57973977194591
3.79,-0.09643990360722686,-0.028248280706694804,76.27696075875019
3.8,-0.10806111374901821,-0.003943123851506597,75.9625064622693
3.81,-0.08602923618853878,-0.02246287767866463,75.67062438013976
3.82,-0.09531006373233047,0.0001292827492297245,75.41298979564674
3.83,-0.07384310610929923,-0.007983209764935488,75.18804600435223
3.84,-0.08368885359053913,0.014576629975651437,74.98567442740908
3.85,-0.06456227856550752,-0.006237892650334207,74.71636455963089
3.86,-0.06924304376150682,0.01632194709025272,74.402688615369
3.87,-0.035589956059236025,0.005332913405726136,74.07655903560293
3.88,-0.0315548136488918,0.037168790403545794,73.74031087698968
3.89,0.005568496526275024,0.022689122489816648,73.39238743509127
3.9,0.01718970666806638,0.05972863014413272,73.03278870990766
3.91,0.06996936939536878,0.061473947258734,72.67396833694308
3.92,0.09030648714350364,0.09043328308619228,72.42645233129721
3.93,0.17730415751052503,0.11066603334064416,72.60625169388902
3.94,0.2230626724438285,0.15756335062372673,73.69516644828698
3.95,0.30077951526705815,0.16276698128022313,76.36647126393659
3.96,0.34371343051312064,0.20097003367760674,80.72213028152844
3.97,0.40811430338221444,0.19518463064957656,85.90829111680623
3.98,0.40173877837387056,0.19692994776417783,90.62277050736267
3.99,0.35936978306525624,0.13442173851160605,94.19307213597128
4.0,0.2619614452795468,0.09330982425655365,96.65110844361158
4.01,0.17730415751052503,0.02036203300368161,98.07704970884178
4.02,0.07634489440371264,0.004751141034192375,98.66081387310088
4.03,0.03752682441620125,-0.04214617624889019,98.61566944439818
4.04,-0.0001614056964137688,-0.028830053078228564,98.15566328296201
4.05,0.007908879124274671,-0.050258668763055396,97.40299668717728
4.06,-0.01702830097165261,-0.03981908676275515,96.6402115125454
4.07,-0.0037123310175166827,-0.059502385332980696,95.97783377416609
4.08,-0.02049852344454864,-0.04389149336349147,95.3823943266218
4.09,-0.000807028482068844,-0.06299301956218326,94.74258880259384
4.1,-0.008312393365309093,-0.044473265735025226,94.01327277337948
4.11,0.01718970666806638,-0.05892061296144694,93.26138452981377
4.12,-0.006536930704757637,-0.044473265735025226,92.5764345770831
4.13,0.015494946855721805,-0.06357479193371703,91.9475259841213
4.14,-0.0013719484195170348,-0.04214617624889019,91.30772046009334
4.15,0.024130151613858435,-0.05084044113458916,90.6118735762965
4.16,0.01024926172227432,-0.034615456106258734,89.83741311837943
4.17,0.03115129940785738,-0.05833884058991318,88.93919465763945
4.18,0.01024926172227432,-0.04098263150582267,87.87285211759283
4.19,0.03171621934530557,-0.05720761653415309,86.69442685800847
4.2,0.012589644320273968,-0.04214617624889019,85.47085716972141
4.21,0.03284605922020195,-0.0624112471906495,84.30332884120322
4.22,0.028810916809857732,-0.043309720991957706,83.33817208962819
4.23,0.06012362191412888,-0.05429875467648429,82.4399536288882
4.24,0.09611709221439932,-0.04793157927692036,81.39540495097393
4.25,0.11750334698922368,-0.05778938890568685,80.72213028152844
4.26,0.1645531074938373,-0.012055616365671809,80.45282041375025
4.27,0.26252636521699496,-0.01376861279296566,80.48628955916777
4.28,0.22370829522948357,0.010536544062222547,80.6551919906934
4.29,0.194090349937557,-0.02650296359209352,80.77817164129732
4.3,0.08038003681405687,-0.05255343756188301,80.90192964412024
4.31,0.06762898679736913,-0.07572737036131112,80.98054321824047
4.32,0.027035454149306276,-0.06645133310407839,81.04748150907551
4.33,0.030505676622202303,-0.07802213916013874,81.07005372342687
4.34,0.020659929140962405,-0.06066593007604822,81.0591567923607
4.35,0.03922158422854582,-0.07398205324670984,80.98054321824047
4.36,0.01428440413261854,-0.06586956073254463,80.82331607000002
4.37,-0.07787824851964345,-0.11043978852949216,80.63261977634204
4.38,-0.07384310610929923,-0.044473265735025226,80.41935126833272
4.39,0.8384218900213221,0.2357147725330952,80.18351054597206
4.4,2.297690791298206,0.2247257388485686,79.95856675467755
4.41,0.8540782425734577,0.17029770142285458,79.70093217018453
4.42,0.020095009203514216,-0.0016160343653715563,79.36390565935228
4.43,0.07287467193081662,-0.04389149336349147,78.97083778875115
4.44,0.043902349424545115,-0.04734980690538659,78.58944520143523
4.45,0.03752682441620125,-0.06761487784714591,78.2415217595368
4.46,0.018400249391169642,-0.04560448979078532,77.93796439412208
4.47,0.03405660194330522,-0.059502385332980696,77.64686066421153
4.48,0.025905614274409895,-0.03981908676275515,77.35497858208198
4.49,0.04269180670144185,-0.05429875467648429,77.09656564536996
4.5,0.02824599687240954,-0.03810609033546129,76.81558049430659
4.51,0.04616202917433788,-0.04967689639152164,76.51280148111087
4.52,0.038656664291097625,-0.029993597821296084,76.20924411569614
4.53,0.06189908457468034,-0.03865554201968763,75.89556817143425
4.54,0.06359384438702491,-0.02188110530713087,75.58111387495336
4.55,0.08853102448295219,-0.025371739536333433,75.23319043305494
4.56,0.10071715456219174,0.005914685777259896,74.87359170787134
4.57,0.13727554479991036,0.0024240515480573343,74.52566826597291
4.58,0.14712129228115026,0.03367815617434323,74.20031703842585
4.59,0.2033711774813487,0.03425992854587699,73.97537324713134
4.6,0.24105940759396371,0.07941192871435827,74.06566210453676
4.61,0.32111663301519305,0.08926973834312477,74.90783920550787
4.62,0.3819665805631839,0.1402071415396362,77.163503936205
4.63,0.44870783603027725,0.14541077219613263,81.16034258083226
4.64,0.49914711615958,0.1801555110516211,86.1892762678696
4.65,0.5495863962888827,0.168002932624027,90.91465258949222
4.66,0.5177087712471634,0.15352326471029784,94.74258880259384
4.67,0.44983767590517365,0.0834843353150946,97.47071333023133
4.68,0.3320922203713293,0.04699427934500485,99.16596446323975
4.69,0.24799985253975576,-0.01667747465063446,100.0299354263432
4.7,0.1691531698416297,-0.028830053078228564,100.28834836305523
4.71,0.13840538467480676,-0.06357479193371703,100.10854900046343
4.72,0.10362245709763958,-0.05084044113458916,99.55825398162186
4.73,0.10596283969563922,-0.06819665021867967,98.81804102134133
4.74,0.08853102448295219,-0.05778938890568685,98.13309106861065
4.75,0.09781185202674389,-0.08034922864627378,97.59447133305427
4.76,0.09611709221439932,-0.06124770244758198,97.06674852856405
4.77,0.10652775963308742,-0.07223673613210856,96.48298436430495
4.78,0.10184699443708811,-0.05833884058991318,95.80893134264045
4.79,0.11750334698922368,-0.07281850850364233,95.14733195648014
4.8,0.0972469320892957,-0.05833884058991318,94.52932029458452
4.81,0.11112782198087982,-0.06877842259021343,93.94555613032543
4.82,0.0972469320892957,-0.05833884058991318,93.36179196606633
4.83,0.11403312451632766,-0.06819665021867967,92.7562339396749
4.84,0.10362245709763958,-0.056044071791085566,92.03781484152671
4.85,0.11580858717687911,-0.07976745627474001,91.15049331185288
4.86,0.10943306216853525,-0.10294138907416812,90.03978469532258
4.87,0.125654334658119,-0.0624112471906495,88.74849836398147
4.88,0.11177344476653489,-0.03865554201968763,87.45721203264036
4.89,0.1262192545955672,-0.06066593007604822,86.30135898740735
4.9,0.11290328464143128,-0.05892061296144694,85.35799609796466
4.91,0.12387887199756756,-0.0693601949617472,84.57263870898142
4.92,0.12040864952467153,-0.05313520993341677,83.98887454472232
4.93,0.1645531074938373,-0.05833884058991318,83.58490974305504
4.94,0.1836796825188689,-0.04734980690538659,83.29302766092549
4.95,0.20684139995424472,-0.056044071791085566,83.09065608398234
4.96,0.307155040275402,0.004169368662658615,83.00114557879594
4.97,0.31764641054229703,-0.01551392990756694,83.06808386963098
4.98,0.27705287789423416,-0.009728526879536768,83.20273880352008
4.99,0.19174996733955735,-0.05313520993341677,83.33817208962819
5.0,0.12912455713101503,-0.06357479193371703,83.43857952588075
5.01,0.10943306216853525,-0.08555285930277018,83.49462088564962
5.02,0.07981511687660868,-0.06819665021867967,83.45025480916594
5.03,0.08393096213515978,-0.07744036678860497,83.33817208962819
5.04,0.07230975199336842,-0.06761487784714591,83.16926965810256
5.05,0.08393096213515978,-0.07976745627474001,82.95600115009324
5.06,-0.0019368683569652256,-0.08613463167430395,82.73183571101775
5.07,-0.06690266116350717,-0.13823557961388291,82.48431970537189
5.08,0.29787421273161035,0.11819675348327562,82.23758205194505
5.09,1.9270226094839857,0.16971592905132082,81.97916911523302
5.1,1.5518350681701802,0.3387531236691856,81.65381788768596
5.11,0.21668714743548462,0.009954771690688787,81.24985308601866
5.12,0.08215549947460832,-0.02304465005019839,80.80074385564866
5.13,0.11637350711432731,-0.054880527048018046,80.39677905398138
5.14,0.05197263424523355,-0.05662584416261933,80.0262833977316
5.15,0.05318317696833682,-0.07223673613210856,79.666684672548
5.16,0.03978650416599401,-0.05084044113458916,79.29696736851724
5.17,0.049067331709785715,-0.06357479193371703,78.94826557439981
5.18,0.04156196682654547,-0.044473265735025226,78.65638349227027
5.19,0.05027787443288898,-0.05720761653415309,78.39874890777725
5.2,0.0351864418182016,-0.034615456106258734,78.1068668256477
5.21,0.05140771430778537,-0.04851335164845412,77.81498474351815
5.22,0.042126886763993655,-0.02708473596362728,77.55657180680613
5.23,0.05665339944123285,-0.03981908676275515,77.26468972467659
5.24,0.05834815925357742,-0.01551392990756694,76.905869351712
5.25,0.08393096213515978,-0.01842279176523574,76.51280148111087
5.26,0.08506080201005616,0.0024240515480573343,76.10883667944358
5.27,0.12040864952467153,0.001842279176523574,75.76091323754515
5.28,0.14244052708515098,0.04120887631697468,75.4690311554156
5.29,0.19231488727700552,0.054524999487636304,75.37874229801021
5.3,0.23524880252306804,0.09389159662808741,75.85042374273155
5.31,0.3089305029359535,0.11357489519831297,77.51142737810342
5.32,0.3524293381194642,0.14773786168226766,80.84588828435137
5.33,0.4283707182821424,0.1471560893107339,85.51522324620511
5.34,0.4689642509302053,0.17378833565205715,90.44374949698988
5.35,0.4823609237325481,0.1511961752241628,94.6756505117588
5.36,0.41101960591766223,0.11473843994138049,97.87467813189863
5.37,0.3147411080068492,0.04815782408807238,99.99646628092569
5.38,0.20571156007934835,0.009954771690688787,101.19746375486139
5.39,0.125654334658119,-0.03865554201968763,101.71351127606643
5.4,0.05544285671812958,-0.05662584416261933,101.71351127606643
5.41,0.028810916809857732,-0.07976745627474001,101.29864954333297
5.42,0.005568496526275024,-0.06994196733328095,100.65884401930501
5.43,0.005003576588826833,-0.08380754218816891,100.00736321199186
5.44,-0.01412299843620477,-0.0693601949617472,99.4461712620841
5.45,-0.005407090829861255,-0.08438931455970267,98.86240709782501
5.46,-0.012347535775653314,-0.08093100101780754,98.18913242837954
5.47,-0.0042772509549648735,-0.08729817641737146,97.4816102612975
5.48,-0.0077474734278609025,-0.06877842259021343,96.8192325229182
5.49,-0.005407090829861255,-0.08787994878890523,96.22457142759293
5.5,-0.009442233240205475,-0.06415656430525078,95.62991033226767
5.51,-0.011217695900756932,-0.08151277338934129,94.99010480823969
5.52,-0.02049852344454864,-0.07456382561824361,94.3160517865752
5.53,-0.011782615838205123,-0.09482889656000291,93.55326661194331
5.54,-0.019933603507100446,-0.07398205324670984,92.5764345770831
5.55,-0.007182553490412712,-0.08497108693123642,91.38633403421356
5.56,-0.02396874591744467,-0.07052373970481471,90.09582605509146
5.57,-0.011782615838205123,-0.08729817641737146,88.81543665481651
5.58,-0.019933603507100446,-0.06761487784714591,87.63701139523215
5.59,-0.018723060783997183,-0.09075648995926659,86.61581328388824
5.6,-0.029214431050892154,-0.06994196733328095,85.79620839726849
5.61,-0.015252838311101151,-0.07744036678860497,85.17897508759187
5.62,-0.03502503612178783,-0.07514559798977737,84.7633350026394
5.63,-0.021063443381996828,-0.08325809050394258,84.46055598944368
5.64,-0.03793033865723567,-0.0716549637605748,84.224715267083
5.65,-0.0315548136488918,-0.08555285930277018,84.03401897342503
5.66,-0.0414005611301317,-0.07398205324670984,83.97797761365617
5.67,-0.03502503612178783,-0.08209454576087505,84.06748811884255
5.68,-0.03849525859468386,-0.0716549637605748,84.23561219814917
5.69,-0.011217695900756932,-0.0693601949617472,84.38194241532345
5.7,0.03922158422854582,-0.05778938890568685,84.41541156074098
5.71,0.050842794370337174,-0.06182947481911574,84.34847326990592
5.72,0.13380532232701434,-0.02304465005019839,84.26985969578571
5.73,0.15583719988749378,-0.025371739536333433,84.19124612166549
5.74,0.12742979731867046,-0.01376861279296566,84.05659118777638
5.75,0.07755543712681591,-0.040400859134288904,83.79817825106436
5.76,-0.0037123310175166827,-0.0693601949617472,83.51719310000098
5.77,-0.02162836331944502,-0.08093100101780754,83.24788323222279
5.78,-0.054716531084267626,-0.07802213916013874,82.97857336444459
5.79,-0.0465655434153723,-0.08787994878890523,82.67579435124887
5.8,-0.05996221621771511,-0.06994196733328095,82.30529869499911
5.81,-0.04777608613847557,-0.08438931455970267,81.87876167898045
5.82,-0.10983657640956968,-0.0896252659035065,81.48569380837934
5.83,-0.18230773409935186,-0.1492246132984095,81.12609508319574
5.84,0.06940444945792058,0.0765353875439969,80.73380556481362
5.85,1.5796775508015553,0.20446066790680928,80.2955932655098
5.86,1.633022133466306,0.3271823176131253,79.88073153277634
5.87,0.19005520752721278,0.034841700917410755,79.51023587652656
5.88,-0.055846370959164005,-0.02766650833516104,79.16153408240913
5.89,0.0026631939908271854,-0.05138989281881549,78.84785813814725
5.9,-0.05875167349461184,-0.05371698230495053,78.53340384166634
5.91,-0.05996221621771511,-0.06415656430525078,78.2415217595368
5.92,-0.0750536488324025,-0.06008415770451446,77.9722118917586
5.93,-0.061656976030059686,-0.06008415770451446,77.71379895504658
5.94,-0.06746758110095535,-0.05255343756188301,77.44448908726838
5.95,-0.06399735862805933,-0.05313520993341677,77.11913785972132
5.96,-0.06577282128861078,-0.03981908676275515,76.81558049430659
5.97,-0.050681388673923404,-0.04098263150582267,76.5914150552311
5.98,-0.05705691368226727,-0.02650296359209352,76.40071876157313
5.99,-0.04777608613847557,-0.031157142564363603,76.13140889379493
6.0,-0.04430586366557954,-0.012605068049898138,75.7827070996775
6.01,-0.0274389683903407,-0.02188110530713087,75.42388672671291
6.02,-0.0175932209091008,0.004751141034192375,75.13200464458336
6.03,0.02768107693496135,0.01632194709025272,74.85101949351998
6.04,0.04971295449544079,0.0423724210600422,74.60428184009314
6.05,0.10596283969563922,0.05801563371683887,74.52566826597291
6.06,0.13961592739791,0.09098273477041861,74.95220528199157
6.07,0.2132169249625886,0.11819675348327562,76.56884284087974
6.08,0.27293703263568303,0.14541077219613263,79.99281425231408
6.09,0.3489591156465682,0.16567584313789194,84.9882787939339
6.1,0.3993983957758709,0.1946028582780428,90.3425637085183
6.11,0.44120247114703703,0.18477736933658373,94.92238816518564
6.12,0.39189303089263067,0.1511961752241628,98.44754536509156
6.13,0.3222464728900894,0.09098273477041861,100.81607116754546
6.14,0.21031162242714074,0.04815782408807238,102.2186618662053
6.15,0.1262192545955672,-0.006237892650334207,102.81410131374957
6.16,0.04971295449544079,-0.02708473596362728,102.79152909939822
6.17,0.008473799061722862,-0.05084044113458916,102.36499208337958
6.18,-0.024533665854892858,-0.04734980690538659,101.61310383981387
6.19,-0.028003888327788887,-0.06645133310407839,100.77092673884275
6.2,-0.03615487599668421,-0.05720761653415309,99.99646628092569
6.21,-0.03268465352378818,-0.0693601949617472,99.25547496842614
6.22,-0.0367197959341324,-0.05546229941955181,98.55962808462931
6.23,-0.0315548136488918,-0.06586956073254463,97.89725034624999
6.24,-0.03437941333613276,-0.05138989281881549,97.20140346245314
6.25,-0.029779350988340343,-0.0624112471906495,96.50555657865631
6.26,-0.03615487599668421,-0.04676803453385284,95.8315035569918
6.27,-0.029214431050892154,-0.06357479193371703,95.19169803296384
6.28,-0.04196548106757989,-0.05429875467648429,94.495851149167
6.29,-0.022273986105100094,-0.05720761653415309,93.69881847689858
6.3,-0.0274389683903407,-0.050258668763055396,92.77802780180724
6.31,-0.019368683569652257,-0.056044071791085566,91.71168526176064
6.32,-0.03324957346123637,-0.04793157927692036,90.49979085675875
6.33,-0.01815814084654899,-0.05313520993341677,90.02810941203741
6.34,-0.030344270925788536,-0.050258668763055396,89.62414461037011
6.35,-0.01815814084654899,-0.05429875467648429,88.6924570042126
6.36,-0.035589956059236025,-0.04967689639152164,87.53582560676058
6.37,-0.02509858579234105,-0.05371698230495053,86.49205528106532
6.38,-0.029779350988340343,-0.04851335164845412,85.79620839726849
6.39,-0.022273986105100094,-0.056044071791085566,85.43660967208488
6.4,-0.03615487599668421,-0.05138989281881549,85.33620223583232
6.41,-0.032119733586339995,-0.059502385332980696,85.31363002148096
6.42,-0.03615487599668421,-0.04734980690538659,85.32452695254713
6.43,-0.028003888327788887,-0.05138989281881549,85.29105780712962
6.44,-0.04019001840702843,-0.050258668763055396,85.33620223583232
6.45,-0.026309128515444317,-0.05371698230495053,85.43660967208488
6.46,-0.03615487599668421,-0.04851335164845412,85.51522324620511
6.47,-0.0274389683903407,-0.05429875467648429,85.48175410078758
6.48,-0.030344270925788536,-0.046186262162319074,85.40314052666736
6.49,0.01081418165972251,-0.03810609033546129,85.30195473819579
6.5,0.03405660194330522,-0.03173891493589737,85.15640287324051
6.51,0.07053428933281697,-0.028248280706694804,84.95403129629736
6.52,0.15236697741459776,0.01978026063214785,84.70729364287052
6.53,0.1494616748791499,0.012281861176823828,84.43798377509232
6.54,0.11056290204343164,0.008791226947621265,84.14610169296277
6.55,0.040432126951649085,-0.03287013899165745,83.775606036713
6.56,-0.0037123310175166827,-0.04793157927692036,83.39421344939707
6.57,-0.022273986105100094,-0.06066593007604822,82.98947029551076
6.58,-0.040754938344476625,-0.05255343756188301,82.60807770819481
6.59,-0.035589956059236025,-0.0624112471906495,82.23758205194505
6.6,-0.05181122854881979,-0.05892061296144694,81.83361725027775
6.61,-0.03793033865723567,-0.050258668763055396,81.39540495097393
6.62,-0.14921956633452926,-0.07456382561824361,80.96886793495528
6.63,-0.16318115907432026,-0.07689091510437865,80.6100475619907
6.64,0.5177087712471634,0.23862363439076398,80.2955932655098
6.65,2.1897910832456016,0.21428615684826835,79.94766982361138
6.66,0.985785290847093,0.2611834741313509,79.58884945064679
6.67,-0.008877313302757284,0.018067264204853998,79.25182293981453
6.68,-0.02162836331944502,0.0024240515480573343,78.93736864333364
6.69,-0.005972010767309446,-0.032288366620123694,78.63458963013792
6.7,-0.05358669120937124,-0.030575370192829843,78.32013533365702
6.71,-0.04253040100502808,-0.033451911363191214,77.99478410610996
6.72,-0.05358669120937124,-0.037524317963927536,77.71379895504658
6.73,-0.048905926013371945,-0.03810609033546129,77.46706130161974
6.74,-0.04487078360302773,-0.01784101939370198,77.21954529597387
6.75,-0.03849525859468386,-0.01842279176523574,76.95023542819568
6.76,-0.04019001840702843,-0.005106668594574117,76.70349777476883
6.77,-0.03906017853213205,-0.005688440966107878,76.47933233569334
6.78,-0.0367197959341324,0.007045909833019985,76.22091939898132
6.79,-0.02162836331944502,0.0001292827492297245,75.90646510250042
6.8,-0.015817758248549342,0.016903719461786478,75.56943859166817
6.81,0.009119421847377938,0.03367815617434323,75.24408736412111
6.82,0.021870471864065672,0.04699427934500485,74.95220528199157
6.83,0.050842794370337174,0.05627031660223759,74.68289541421336
6.84,0.0786852770017123,0.07188120857172682,74.45872997513787
6.85,0.1303350998541183,0.10142231677071886,74.44705469185268
6.86,0.1795638372603178,0.12514570125437333,74.9413083509254
6.87,0.25437537754809963,0.15061440285262903,76.61398726958245
6.88,0.30077951526705815,0.18186850747891495,80.15004140055453
6.89,0.36808569067159974,0.19809349250724537,85.44828495537006
6.9,0.4144898283905583,0.22123510461936605,91.08355502101784
6.91,0.43539186607614133,0.20620598502141058,95.74199305180541
6.92,0.37276645586759904,0.168002932624027,99.17686139430592
6.93,0.28342840290257804,0.10953480928488409,101.47844890592476
6.94,0.17262339231452573,0.06263749200180152,102.83667352810093
6.95,0.0874011846080558,0.01574017471871896,103.30757662060326
6.96,0.023000311738962054,0.0012605068049898137,103.12855561023048
6.97,-0.0025017882944134164,-0.02013578819252959,102.54479144597138
6.98,-0.030344270925788536,-0.02013578819252959,101.63567605416522
6.99,-0.02396874591744467,-0.02188110530713087,100.66974095037118
7.0,-0.040754938344476625,-0.01842279176523574,99.77152248963118
7.01,-0.0367197959341324,-0.03577900084932625,98.93012374087907
7.02,-0.03793033865723567,-0.028830053078228564,98.13309106861065
7.03,-0.03437941333613276,-0.02708473596362728,97.30258925092473
7.04,-0.0414005611301317,-0.0190045641367695,96.47130908101977
7.05,-0.028003888327788887,-0.01955401582099583,95.69684862310271
7.06,-0.04253040100502808,-0.01031029925107053,94.97842952495452
7.07,-0.03324957346123637,-0.01435038516449942,94.28258264115767
7.08,-0.037284715871580595,-0.01493215753603318,93.51901911430679
7.09,-0.019368683569652257,-0.02129933293559711,92.70019257990603
7.1,-0.02509858579234105,-0.02304465005019839,91.80197411916603
7.11,-0.01412299843620477,-0.02246287767866463,90.75820379347077
7.12,-0.024533665854892858,-0.012055616365671809,89.56810325060124
7.13,-0.01815814084654899,-0.01667747465063446,88.7376014329153
7.14,-0.03437941333613276,-0.01784101939370198,88.03007926583328
7.15,-0.018723060783997183,-0.010892071622604289,87.12096387402711
7.16,-0.028003888327788887,-0.01725924702216822,86.17760098458443
7.17,-0.022273986105100094,-0.025371739536333433,85.41481580995254
7.18,-0.02864951111344396,-0.011473843994138049,84.88709300546232
7.19,-0.013558078498756579,-0.0068196650218679674,84.59521092333277
7.2,-0.03615487599668421,-0.02304465005019839,84.51659734921255
7.21,-0.032119733586339995,-0.01435038516449942,84.51659734921255
7.22,-0.037284715871580595,-0.001034261993837796,84.5391695635639
7.23,-0.037284715871580595,-0.01435038516449942,84.60610785439894
7.24,-0.024533665854892858,0.0012605068049898137,84.68472142851917
7.25,-0.022273986105100094,-0.02766650833516104,84.70729364287052
7.26,-0.03962509846958024,-0.005688440966107878,84.75243807157322
7.27,-0.028003888327788887,-0.01551392990756694,84.77501028592458
7.28,-0.03906017853213205,-0.01725924702216822,84.69639671180435
7.29,-0.022838906042548287,-0.0027795791084390766,84.5391695635639
7.3,-0.01646338103420442,-0.03403368373472497,84.33679798662075
7.31,0.04099704688909728,-0.012605068049898138,84.12352947861143
7.32,0.029940756684754113,0.007627682204553746,83.89936403953594
7.33,0.1070926795705356,0.02905629788938058,83.60748195740639
7.34,0.18020946004597288,0.055688544230703824,83.29302766092549
7.35,0.15172135462894268,0.045281282917711003,82.96767643337841
7.36,0.10362245709763958,0.039463559202373405,82.61897463926098
7.37,0.027035454149306276,0.004751141034192375,82.2601542662964
7.38,-0.005407090829861255,-0.006237892650334207,81.91223082439798
7.39,-0.018723060783997183,-0.006237892650334207,81.51916295379685
7.4,-0.03268465352378818,0.003587596291124855,81.16034258083226
7.41,-0.033814493398684566,-0.001034261993837796,80.82331607000002
7.42,-0.03962509846958024,-0.01031029925107053,80.45282041375025
7.43,-0.05649199374481908,0.004751141034192375,80.0262833977316
7.44,-0.18230773409935186,-0.05546229941955181,79.666684672548
7.45,-0.0025017882944134164,0.08461555937085469,79.34133344500093
7.46,1.2612241117771894,0.2316746866196663,78.99341000310251
7.47,1.7937015042462128,0.3045901571852309,78.65638349227027
7.48,0.2990847554547136,0.12398215651130579,78.32013533365702
7.49,-0.11153133622191425,0.02789275314631306,77.93796439412208
7.5,-0.026309128515444317,0.03425992854587699,77.59004095222365
7.51,-0.030344270925788536,0.02501621197595169,77.2981588700941
7.52,-0.04947084595082014,0.0273109807747793,76.99537985689838
7.53,-0.0512463086113716,0.012863633548357588,76.70349777476883
7.54,-0.055846370959164005,0.03425992854587699,76.37814654722177
7.55,-0.05358669120937124,0.017485491833320238,76.04112003638953
7.56,-0.05875167349461184,0.034841700917410755,75.77181016861132
7.57,-0.04309532094247627,0.0273109807747793,75.54764472953583
7.58,-0.0465655434153723,0.03658701803201203,75.31180400717516
7.59,-0.033814493398684566,0.038332335146613314,75.109432430232
7.6,-0.033814493398684566,0.047576051716538614,74.86269477680517
7.61,-0.023403825979996476,0.05627031660223759,74.55913741139044
7.62,-0.015252838311101151,0.0736265256863281,74.28982754361225
7.63,0.009684341784826129,0.08290256294356084,74.00962074476787
7.64,0.023000311738962054,0.09043328308619228,73.74031087698968
7.65,0.061253461789025264,0.10258586151378639,73.47022265699248
7.66,0.09030648714350364,0.13558528325467356,73.23516028685081
7.67,0.14131068721025458,0.16163575722446305,73.15654671273059
7.68,0.19465526987500517,0.18998099999308016,73.56051151439789
7.69,0.265996587689891,0.2166132463344034,75.15457685893472
7.7,0.31070596559650493,0.2368783172761627,78.6906309899068
7.71,0.3808367406882875,0.2588563846452159,84.07838504990872
7.72,0.40577392078421476,0.2611834741313509,89.93859890685101
7.73,0.39826855590097454,0.23746008964769647,94.86634680541677
7.74,0.32636231814864053,0.1957664030211103,98.43587008180637
7.75,0.2370242651836195,0.13788005205350118,100.70321009578869
7.76,0.13437024226446254,0.08290256294356084,101.9493519984271
7.77,0.06762898679736913,0.049903141202673654,102.27548157819318
7.78,0.012589644320273968,0.04353596580310973,101.91588285300958
7.79,-0.01008785602586055,0.022107350118282888,101.14142239509252
7.8,-0.029779350988340343,0.011118316433756307,100.01903849527703
7.81,-0.03324957346123637,0.017485491833320238,98.93012374087907
7.82,-0.04196548106757989,-0.00045248962230403576,97.97586392037022
7.83,-0.0367197959341324,0.004169368662658615,97.06674852856405
7.84,-0.04366024087992446,0.008209454576087506,96.15763313675788
7.85,-0.03615487599668421,0.023270894861350408,95.24773939273271
7.86,-0.0465655434153723,0.015158402347185197,94.32772706986039
7.87,-0.024533665854892858,0.0273109807747793,93.47465303782309
7.88,-0.032119733586339995,0.009954771690688787,92.65504815120333
7.89,-0.018723060783997183,0.019230808947921518,91.84634019564973
7.9,-0.0175932209091008,0.02672920840324554,91.02751366124897
7.91,-0.01702830097165261,0.02672920840324554,90.1627643459265
7.92,-0.019368683569652257,0.022107350118282888,89.17503538000011
7.93,-0.011217695900756932,0.023852667232884168,88.44571935078575
7.94,-0.02049852344454864,0.019230808947921518,87.59186696652945
7.95,-0.013558078498756579,0.01978026063214785,86.34650341611005
7.96,-0.032119733586339995,0.013413085232583916,85.0777892991203
7.97,-0.021063443381996828,0.010536544062222547,84.05659118777638
7.98,-0.019933603507100446,0.004751141034192375,83.32649680634302
7.99,-0.015252838311101151,0.014576629975651437,82.85481536162166
8.0,-0.02864951111344396,-0.0027795791084390766,82.64154685361234
8.01,-0.023403825979996476,0.01574017471871896,82.59718077712866
8.02,-0.0367197959341324,0.001842279176523574,82.63064992254617
8.03,-0.02864951111344396,0.008209454576087506,82.69758821338121
8.04,-0.03793033865723567,0.0006787344334560536,82.83302149948932
8.05,-0.035589956059236025,0.008209454576087506,83.00114557879594
8.06,-0.03615487599668421,0.006496458148793656,83.13580051268504
8.07,-0.02864951111344396,0.007627682204553746,83.21441408680526
8.08,-0.033814493398684566,-0.00045248962230403576,83.24788323222279
8.09,-0.02162836331944502,0.009372999319155025,83.20273880352008
8.1,0.01371948419517035,-0.0027795791084390766,83.06808386963098
8.11,0.0351864418182016,0.014576629975651437,82.87738757597302
8.12,0.08038003681405687,0.031383387375515624,82.67579435124887
8.13,0.17786907744797323,0.05510677185917007,82.4399536288882
8.14,0.1685882499041815,0.05627031660223759,82.15896847782483
8.15,0.1407457672728064,0.05743386134530511,81.86708639569528
8.16,0.0450321892994415,0.009954771690688787,81.57520431356573
8.17,0.017754626605514568,0.009954771690688787,81.26075001708483
8.18,-0.008312393365309093,0.0024240515480573343,80.89025436083506
8.19,-0.022273986105100094,0.003587596291124855,80.49796484245294
8.2,-0.03849525859468386,-0.01493215753603318,80.13836611726934
8.21,-0.03437941333613276,-0.0068196650218679674,79.76787046101957
8.22,-0.0465655434153723,-0.011473843994138049,79.41994701912115
8.23,-0.15333541159308037,-0.04156440387735642,79.08369886050792
8.24,-0.12137708370315414,0.01632194709025272,78.75756928074183
8.25,0.7885475298294675,0.27970322795850894,78.43221805319477
8.26,2.23619522096456,0.273336052558945,78.07339768023019
8.27,0.742789014896164,0.22123510461936605,77.73637116939793
8.28,-0.07440802604674741,0.02847452551784682,77.42191687291704
8.29,-0.021063443381996828,0.03542347328894451,77.08489036208478
8.3,-0.02396874591744467,0.012863633548357588,76.74864220347155
8.31,-0.0414005611301317,0.014576629975651437,76.456760121342
8.32,-0.050681388673923404,0.006496458148793656,76.16487803921245
8.33,-0.05358669120937124,0.013413085232583916,75.83952681166538
8.34,-0.05294106842371617,0.013413085232583916,75.50250030083313
8.35,-0.05003576588826833,0.022107350118282888,75.23319043305494
8.36,-0.050681388673923404,0.009372999319155025,74.99734971069427
8.37,-0.03268465352378818,0.03542347328894451,74.77240591939976
8.38,-0.0367197959341324,0.02963807026091434,74.51477133490674
8.39,-0.026874048452892506,0.038332335146613314,74.23378618384336
8.4,-0.028003888327788887,0.037168790403545794,73.97537324713134
8.41,-0.005972010767309446,0.05743386134530511,73.70606337935315
8.42,-0.0001614056964137688,0.052197910001501265,73.44842879486013
8.43,0.024130151613858435,0.07824838397129075,73.16744364379676
8.44,0.050842794370337174,0.08115724582895956,72.8872368449524
8.45,0.08562572194750435,0.11299312282677922,72.59535476282285
8.46,0.1250894147206708,0.11415666756984673,72.46069982893376
8.47,0.18537444233121347,0.16047221248139554,72.81952020189834
8.48,0.24049448765651552,0.175501332079351,74.27893061254608
8.49,0.3060252004005056,0.21777679107747092,77.60171623550883
8.5,0.35533464065491205,0.21603147396286965,82.83302149948932
8.51,0.406338840721663,0.2328059106754264,88.74849836398147
8.52,0.4139249084531101,0.21952210819207219,93.8225764797215
8.53,0.3471836529860167,0.18186850747891495,97.51585775893405
8.54,0.24799985253975576,0.11415666756984673,99.95132185222297
8.55,0.1453458296205988,0.07074998451596673,101.35469090310184
8.56,0.06593422698502456,0.02789275314631306,101.8263723478232
8.57,0.01484932407006673,0.016903719461786478,101.56795941111116
8.58,-0.02509858579234105,-0.005106668594574117,100.87211252731433
8.59,-0.03962509846958024,-0.005688440966107878,99.88438356138793
8.6,-0.05649199374481908,-0.024789967164799673,98.8289379524075
8.61,-0.05181122854881979,-0.01376861279296566,97.86378120083246
8.62,-0.054151611146819434,-0.024208194793265914,96.9546658090263
8.63,-0.06456227856550752,-0.028248280706694804,96.11248870805518
8.64,-0.06399735862805933,-0.028248280706694804,95.22594553060037
8.65,-0.052376148486267975,-0.028830053078228564,94.28258264115767
8.66,-0.04309532094247627,-0.02592119122055976,93.39603946370286
8.67,-0.050681388673923404,-0.0160957022791007,92.58733150814928
8.68,-0.04777608613847557,-0.02304465005019839,91.84634019564973
8.69,-0.047211166201027374,-0.012055616365671809,91.11702416643537
8.7,-0.04309532094247627,-0.02650296359209352,90.38770813722101
8.71,-0.04487078360302773,-0.012055616365671809,89.60157239601875
8.72,-0.0465655434153723,-0.02708473596362728,88.6924570042126
8.73,-0.035589956059236025,-0.012055616365671809,87.21047437921351
8.74,-0.03324957346123637,-0.024208194793265914,85.63898124902803
8.75,-0.03502503612178783,-0.01376861279296566,84.48312820379503
8.76,-0.0414005611301317,-0.03173891493589737,83.60748195740639
8.77,-0.04309532094247627,-0.0190045641367695,82.91085672139053
8.78,-0.03962509846958024,-0.031157142564363603,82.36134005476798
8.79,-0.04253040100502808,-0.01842279176523574,81.88965861004662
8.8,-0.0414005611301317,-0.028830053078228564,81.49659073944551
8.81,-0.047211166201027374,-0.024208194793265914,81.23895615495249
8.82,-0.050681388673923404,-0.03287013899165745,81.07005372342687
8.83,-0.05003576588826833,-0.01784101939370198,81.0591567923607
8.84,-0.054151611146819434,-0.0351972284777925,81.16034258083226
8.85,-0.048905926013371945,-0.01667747465063446,81.30589444578753
8.86,-0.04947084595082014,-0.034615456106258734,81.42965244861047
8.87,-0.02396874591744467,-0.010892071622604289,81.53083823708204
8.88,0.02824599687240954,-0.02188110530713087,81.57520431356573
8.89,0.02824599687240954,-0.007401437393401727,81.55263209921438
8.9,0.11346820457887948,0.003587596291124855,81.45222466296181
8.91,0.15115643469149448,0.023270894861350408,81.24985308601866
8.92,0.13315969954135926,0.012281861176823828,80.99144014930664
8.93,0.07690981434116083,0.010536544062222547,80.76727471023115
8.94,-0.007182553490412712,-0.04967689639152164,80.54233091893664
8.95,-0.026874048452892506,-0.024208194793265914,80.28469633444362
8.96,-0.05528145102171582,-0.04734980690538659,79.9811389690289
8.97,-0.058186753557163656,-0.039237314391221384,79.63321552713047
8.98,-0.05528145102171582,-0.04560448979078532,79.30786429958341
8.99,-0.05875167349461184,-0.04098263150582267,78.97083778875115
9.0,-0.10927165647212148,-0.06299301956218326,78.56687298708387
9.01,-0.17940243156390404,-0.08846172116043899,78.17380511648274
9.02,0.08159057953716013,0.09680045848575622,77.79241252916681
9.03,1.5720914830701083,0.23051114187659877,77.42191687291704
9.04,1.664334838570577,0.3283458623561928,77.08489036208478
9.05,0.17262339231452573,0.08057547345742579,76.74864220347155
9.06,-0.04543570354047592,-0.009728526879536768,76.42251262370546
9.07,-0.009442233240205475,-0.01376861279296566,76.08626446509223
9.08,-0.05358669120937124,-0.03810609033546129,75.79438238296268
9.09,-0.06859742097585174,-0.02708473596362728,75.47992808648178
9.1,-0.06633774122605898,-0.037524317963927536,75.16547379000089
9.11,-0.06690266116350717,-0.02304465005019839,74.87359170787134
9.12,-0.06803250103840355,-0.03636077322086002,74.5817096257418
9.13,-0.059316593432060034,-0.01551392990756694,74.32407504124878
9.14,-0.054151611146819434,-0.02304465005019839,74.07655903560293
9.15,-0.0605271361551633,-0.01031029925107053,73.77378002240721
9.16,-0.04309532094247627,-0.007401437393401727,73.47022265699248
9.17,-0.03849525859468386,0.0030058239195910946,73.20091278921429
9.18,-0.029779350988340343,-0.0045248962230403575,72.92070599036991
9.19,-0.02162836331944502,0.01978026063214785,72.61714862495519
9.2,0.005003576588826833,0.02036203300368161,72.3034726806933
9.21,0.022435391801513865,0.05164845831727494,71.9890183842124
9.22,0.05544285671812958,0.04815782408807238,71.68546101879767
9.23,0.09611709221439932,0.0834843353150946,71.51733693949106
9.24,0.15115643469149448,0.1077894921702828,71.65199187338015
9.25,0.2173327702211397,0.14657431693920014,72.51674118870262
9.26,0.2938390703212661,0.159308667738328,74.88526699115651
9.27,0.34314851057567247,0.1957664030211103,79.20667851111183
9.28,0.40343353818621513,0.1957664030211103,84.85284550782579
9.29,0.42546541574669455,0.20387889553527552,90.27484706546424
9.3,0.3999633157133191,0.15814512299526048,94.55189250893588
9.31,0.31183580547140133,0.11357489519831297,97.49328554458269
9.32,0.20861686261479617,0.053361454744568784,99.28894411384367
9.33,0.10418737703508776,0.016903719461786478,100.12022428374861
9.34,0.04156196682654547,-0.02013578819252959,100.18716257458365
9.35,-0.01008785602586055,-0.025371739536333433,99.72715641314748
9.36,-0.0315548136488918,-0.04967689639152164,98.8289379524075
9.37,-0.05003576588826833,-0.04560448979078532,97.74002319800954
9.38,-0.0512463086113716,-0.06008415770451446,96.80833559185203
9.39,-0.06286751875316295,-0.050258668763055396,96.02219985064977
9.4,-0.058186753557163656,-0.06586956073254463,95.24773939273271
9.41,-0.058186753557163656,-0.044473265735025226,94.46238200374948
9.42,-0.05181122854881979,-0.05546229941955181,93.64277711712971
9.43,-0.055846370959164005,-0.04389149336349147,92.83484751379513
9.44,-0.050681388673923404,-0.06008415770451446,92.11642841564694
9.45,-0.05528145102171582,-0.04156440387735642,91.41980317963109
9.46,-0.04777608613847557,-0.05255343756188301,90.7465285101856
9.47,-0.05649199374481908,-0.034615456106258734,90.10672298615764
9.48,-0.04430586366557954,-0.056044071791085566,89.41087610236079
9.49,-0.054151611146819434,-0.043309720991957706,88.56869900138967
9.5,-0.04543570354047592,-0.05371698230495053,87.55839782111194
9.51,-0.04543570354047592,-0.04098263150582267,86.37997256152758
9.52,-0.04366024087992446,-0.06066593007604822,85.14472758995534
9.53,-0.0414005611301317,-0.04272794862042394,83.76470910564683
9.54,-0.04777608613847557,-0.05892061296144694,82.23758205194505
9.55,-0.054716531084267626,-0.03865554201968763,81.2272808716673
9.56,-0.04366024087992446,-0.054880527048018046,80.6995580671771
9.57,-0.059316593432060034,-0.04214617624889019,80.44192348268407
9.58,-0.050681388673923404,-0.059502385332980696,80.26212412009228
9.59,-0.061092056092611494,-0.04214617624889019,80.08232475750047
9.6,-0.061656976030059686,-0.06357479193371703,79.97024203796273
9.61,-0.0605271361551633,-0.04156440387735642,79.88073153277634
9.62,-0.05649199374481908,-0.05197166519034925,79.89162846384251
9.63,-0.06286751875316295,-0.03403368373472497,79.9811389690289
9.64,-0.0605271361551633,-0.056044071791085566,80.1609383316207
9.65,-0.048905926013371945,-0.04156440387735642,80.2955932655098
9.66,-0.01702830097165261,-0.037524317963927536,80.30726854879498
9.67,0.009119421847377938,-0.03173891493589737,80.2060827603234
9.68,0.04099704688909728,-0.034615456106258734,80.05975254314912
9.69,0.1309000197915665,0.018649036576387758,79.92509760926002
9.7,0.1349351622019107,0.0012605068049898137,79.75697352995341
9.71,0.09781185202674389,0.015158402347185197,79.54370502194408
9.72,0.017754626605514568,-0.030575370192829843,79.28529208523206
9.73,-0.03849525859468386,-0.04676803453385284,78.99341000310251
9.74,-0.05705691368226727,-0.06008415770451446,78.70152792097296
9.75,-0.07271326623440284,-0.04793157927692036,78.36527976235973
9.76,-0.07787824851964345,-0.06645133310407839,78.0165779682423
9.77,-0.08836961878653841,-0.04851335164845412,77.63518538092636
9.78,-0.0802186311176431,-0.06299301956218326,77.24211751032523
9.79,-0.1753672891535598,-0.06008415770451446,76.86072492300929
9.8,-0.22177142687251833,-0.10465438550146199,76.49022926675951
9.81,0.3622750856007041,0.22760228001893,76.10883667944358
9.82,2.054048892561622,0.18710445882271878,75.76091323754515
9.83,1.109260648603626,0.29301935112917055,75.44645894106426
9.84,-0.003066708231861607,0.02152557774674913,75.13200464458336
9.85,-0.06633774122605898,-0.005106668594574117,74.78408120268494
9.86,-0.04777608613847557,-0.04098263150582267,74.43615776078653
9.87,-0.0894994586614348,-0.031157142564363603,74.11080653323945
9.88,-0.0993452061426747,-0.05084044113458916,73.80724916782472
9.89,-0.10055574886577796,-0.028830053078228564,73.52704236898036
9.9,-0.09474514379488229,-0.04156440387735642,73.23516028685081
9.91,-0.09643990360722686,-0.01667747465063446,72.95417513578744
9.92,-0.08312393365309094,-0.031157142564363603,72.71833441342676
9.93,-0.0894994586614348,-0.011473843994138049,72.49416897435127
9.94,-0.07674840864474707,-0.025371739536333433,72.22485910657308
9.95,-0.07271326623440284,0.0012605068049898137,71.9438739555097
9.96,-0.06456227856550752,-0.01031029925107053,71.68546101879767
9.97,-0.05294106842371617,0.016903719461786478,71.4052542199533
9.98,-0.03268465352378818,0.004169368662658615,71.10169685453857
9.99,-0.01815814084654899,0.040627103945440925,70.77634562699151
