time_s,ECG1,ECG2,NIBP
0.0,-0.6908735938716629,-0.038897926786444714,153.84006689701343
0.01,-0.6955962016987803,-0.057274900071379226,150.78829849801429
0.02,-0.7081166038450913,-0.05135343090178922,148.17343457641405
0.03,-0.6896654848926329,-0.05252751530610448,145.77233507723224
0.04,-0.6968043106778103,-0.04481939595603472,143.77532534148162
0.05,-0.6843388225760006,-0.0566878578692216,141.58705270146194
0.06,-0.6926308432957067,-0.03831088458428709,140.03913576544116
0.07,-0.6926308432957067,-0.06084820043233871,138.77061267977422
0.08,-0.700977778059914,-0.03532462642548523,138.0749407436583
0.09,-0.699769669080884,-0.04897973851915184,136.93111357106872
0.1,-0.718769928478356,-0.03948496898860235,135.51726818068755
0.11,-0.7069084948660613,-0.038897926786444714,134.33875116761783
0.12,-0.7556721663832727,-0.05551377346490634,133.08241640428176
0.13,-0.7580334702968314,-0.0626093270388116,131.76982784557245
0.14,-0.7758805347597747,-0.05551377346490634,130.49005400083087
0.15,-0.7532559484252127,-0.0471930883386721,129.49154913295556
0.16,-0.7925194902436881,-0.056100815667063965,128.8971340285115
0.17,-0.7889500773510995,-0.06676966960192872,128.44804122878165
0.18,-0.8097625002171165,-0.05906155025185897,128.28021740591808
0.19,-0.8109156951516451,-0.06796927758025084,128.4817935060056
0.2,-0.8388669438028394,-0.0661826273997711,128.750874160541
0.21,-0.8371096943787958,-0.07567739693032059,129.06589541463126
0.22,-0.8454017150985018,-0.06202228483665397,130.24347486444475
0.23,-0.8578672032003115,-0.08042478169559535,131.72482480927383
0.24,-0.8721448547706662,-0.0661826273997711,132.2967383955686
0.25,-0.8460057695880169,-0.06202228483665397,133.08241640428176
0.26,-0.8912000282126396,-0.0691433619845661,133.67683150872585
0.27,-0.8786796260663285,-0.0750648311541561,133.85684365392027
0.28,-0.9089921786310816,-0.0815988660999106,133.63182847242723
0.29,-0.9036655163144492,-0.08397255848254798,133.0486641270578
0.3,-0.8917491686576532,-0.0596485924540166,132.57706980917868
0.31,-0.8626447250719301,-0.05847450804970134,132.06141001825716
0.32,-0.8685754418780776,-0.05847450804970134,131.63481873667664
0.33,-0.8567140082657828,-0.07626443913247823,131.16322441879748
0.34,-0.8424363566954282,-0.03948496898860235,130.68131690509992
0.35,-0.8043809238559828,-0.02406873028846284,129.53655216925415
0.36,-0.8441936061194718,-0.008039925812158849,128.14520829702226
0.37,-0.8816449844694022,-0.027029464873257844,127.18045570637092
0.38,-0.9756029146112364,-0.05786194227353686,126.34977466135918
0.39,-0.976756109545765,-0.08279847407823271,125.64285196616858
0.4,-1.0118461839821367,-0.07743852353679348,125.13844293432172
0.41,-1.018985009767314,-0.09525397819357721,125.10469065709776
0.42,-1.0237625316389327,-0.07389074674984085,125.10469065709776
0.43,-1.0207422591913577,-0.08752033526950061,124.79060696626374
0.44,-1.0564363881172445,-0.09168067783261773,124.47652327542973
0.45,-1.0213463136808727,-0.0750648311541561,124.36401568468321
0.46,-1.0546791386932008,-0.07863813151511559,124.08368427107315
0.47,-1.1164574387572355,-0.08871994324782273,123.47801840755443
0.48,-0.9857070987994874,-0.029403157255895217,123.44426613033046
0.49,-0.49944323473990737,0.16039013905906732,124.1399380664464
0.5,0.37198773745224106,0.2867318303929921,124.26275885301135
0.51,-0.34074164613096486,-0.3360688989482399,124.48777403450438
0.52,-0.8602834211583715,-0.33486929096991774,124.63309633921862
0.53,-1.2829019076408703,-0.2577625738952134,124.37526644375787
0.54,-1.244846474801425,-0.14803672923975023,123.81460361653774
0.55,-1.1039919506554259,-0.10472322415011986,123.01767484874993
0.56,-1.079006060407305,-0.08218590830206823,122.90516725800343
0.57,-1.0576444970962744,-0.06559558519761347,123.45551688940512
0.58,-1.0469362584185085,-0.04127161916908209,123.91492288495338
0.59,-1.017776900788284,-0.033563499819012334,124.2965111302353
0.6,-1.0326586068481538,-0.026442422671100214,124.46527251635507
0.61,-1.0059154671759893,-0.018121737544865978,123.959925921252
0.62,-1.0172277603432704,-0.008652491588323333,123.38801233495721
0.63,-0.997568532411782,-0.009239533790480963,123.2530032260614
0.64,-1.0059154671759893,-0.0021184566425688396,123.1639347167204
0.65,-0.9613252630408816,0.024579201768599908,123.08517940319784
0.66,-0.9654987304229853,0.03287436332082729,123.05142712597389
0.67,-0.9102002876101116,0.06965383346470316,123.21925094883744
0.68,-0.9149778094817302,0.07082791786901843,123.36551081680791
0.69,-0.8430404111849432,0.12481027689351355,123.13018243949645
0.7,-0.8299708685936185,0.1473475927415652,123.02892560782459
0.71,-0.7698949039091261,0.18175337050280369,123.44426613033046
0.72,-0.7354637980067708,0.22149357523147456,123.92617364402804
0.73,-0.700977778059914,0.2327749949425038,126.18195083849562
0.74,-0.7247555593290047,0.21378545588140482,131.51106038685546
0.75,-0.7348597435172557,0.19066109783119556,139.0068786203419
0.76,-0.8365056398892808,0.12539731909567117,146.08641876806624
0.77,-0.9238738846909512,0.05898497952983841,153.40222485635826
0.78,-1.0332626613376688,0.011511131877090923,157.94659395926118
0.79,-1.07961011489682,-0.015773568736235456,160.3026904221444
0.8,-1.1610476428923433,-0.04481939595603472,160.08986356298226
0.81,-1.1669783596984906,-0.053727123284426595,158.17067157749798
0.82,-1.2098113144095546,-0.06439597721929136,155.83707663276405
0.83,-1.1984990212422737,-0.06973040418672373,152.8753143063621
0.84,-1.2127766728126284,-0.05490120768874185,150.0813758028237
0.85,-1.204429738048421,-0.06735671180408635,147.41025808585022
0.86,-1.204429738048421,-0.053727123284426595,145.2566752863107
0.87,-1.1830681747373903,-0.04481939595603472,143.0008980918431
0.88,-1.1931723589256413,-0.04185866137123972,141.23921673340396
0.89,-1.1866375876299788,-0.045406438158192355,139.54503992941272
0.9,-1.1896029460330526,-0.03177684963853259,137.92961843894403
0.91,-1.1729639905491394,-0.021107995703667833,136.2579431531021
0.92,-1.1925683044361264,-0.022282080107983094,134.7990947264223
0.93,-1.186033533140464,-0.01873430332103046,133.56526148123555
0.94,-1.2288115738070267,-0.03831088458428709,132.6445743636266
0.95,-1.204429738048421,-0.021107995703667833,131.37698884121588
0.96,-1.2407279214638227,-0.0376983188081226,130.2547256235194
0.97,-1.2133807273021433,-0.017534695342708347,129.19996696027084
0.98,-1.2430892253773813,-0.026442422671100214,127.88737840156152
0.99,-1.237762563060749,-0.03177684963853259,126.5522883247029
1.0,-1.2597281808612948,-0.027029464873257844,126.23820463386888
1.01,-1.2401238669743078,-0.01932134552318809,127.18045570637092
1.02,-1.265658897667442,-0.028229072851579957,127.88737840156152
1.03,-1.244846474801425,-0.013399876353598081,128.88588326943682
1.04,-1.2710404740285757,-0.027616507075415474,129.637809000926
1.05,-1.2544015185446624,-0.01990838772534572,130.10940331880516
1.06,-1.2781792998137531,-0.028229072851579957,130.41223625056452
1.07,-1.247262692759485,-0.008652491588323333,130.8050752549211
1.08,-1.2716445285180906,-0.016360610938393087,131.589815700378
1.09,-1.2288115738070267,0.0026289281227059092,132.45424902261374
1.1,-1.2294156282965416,-0.0015314144404112093,133.10491792243107
1.11,-1.1640130012954168,0.018045166822845415,133.43025237233974
1.12,-1.1955336628392,0.002041885920548279,133.45275389048905
1.13,-1.1485821547905335,0.035835097905622296,132.70082815899983
1.14,-1.1586863389787845,0.04058248267089704,131.84764559583877
1.15,-1.175325294462698,0.06549349090158604,130.99540059593394
1.16,-1.227658378872498,0.057198329349358666,130.2322241053701
1.17,-1.2727977234526193,0.002041885920548279,129.3687283463906
1.18,-1.2948182552976664,0.007376312887980658,128.49304426508024
1.19,-1.3049224394859174,-0.008652491588323333,127.5732947107275
1.2,-1.3078877978889911,0.005002620505343284,126.90012429276086
1.21,-1.288887538491519,0.007963355090138288,126.17070007942097
1.22,-1.3156306781636835,-0.0056662334295214745,125.87911790673625
1.23,-1.3114572107815798,-0.008652491588323333,125.85661638858696
1.24,-1.3334228285821255,-0.016947653140550717,125.32876827533457
1.25,-1.2948182552976664,0.009750005270618032,124.47652327542973
1.26,-1.3881172169054843,-0.0032925410468841,123.79210209838844
1.27,-1.1432005784294,0.08090972960172556,123.42176461218116
1.28,-0.6248669123810232,0.25531231079055544,123.24175246698674
1.29,0.09439724249784505,0.3881625134962278,123.5670869168954
1.3,-0.6753878333222783,-0.25658848949089813,123.8933589300603
1.31,-1.1788947073552867,-0.21980901934702224,123.8033528574631
1.32,-1.4886099183429806,-0.12312572100906123,123.41051385310651
1.33,-1.3685129030184973,-0.021107995703667833,122.81609874866244
1.34,-1.2900407334260477,0.008550397292295918,122.87141498077948
1.35,-1.236554454081719,0.03287436332082729,123.35426005773326
1.36,-1.235346345102689,0.04711651761665154,123.71334678486588
1.37,-1.2038805976034073,0.061358671912475786,123.81460361653774
1.38,-1.2216727480218492,0.05661128714720104,123.69084526671658
1.39,-1.1866375876299788,0.06906679126254554,123.37676157588255
1.4,-1.184825424161434,0.07794899501693055,123.27550474421069
1.41,-1.1467699913219886,0.09397779949323454,123.61208995319402
1.42,-1.1574782299997546,0.08565711436700031,123.58958843504472
1.43,-1.113492080354162,0.1016859188433043,123.24175246698674
1.44,-1.1147001893331918,0.11414142295864879,122.96142105337668
1.45,-1.058797692030803,0.14142612357197518,123.01767484874993
1.46,-1.0576444970962744,0.14260020797629044,123.1189316804218
1.47,-0.9607212085513667,0.20429068635085532,122.93891953522738
1.48,-0.9541864372557043,0.21853284064667955,122.99517333060064
1.49,-0.8769223766422849,0.26776781490589996,123.37676157588255
1.5,-0.8495751824806055,0.29918733450833657,123.28675550328535
1.51,-0.7794499476523634,0.3341801544717327,124.01617971662525
1.52,-0.7853806644585107,0.3318319856631022,128.28021740591808
1.53,-0.7645682415924937,0.32647203512166295,135.3710083127171
1.54,-0.8287627596145885,0.2742763262776476,142.6643128828598
1.55,-0.8929572776366832,0.2286146523793867,150.76579697986497
1.56,-1.0183809552777991,0.15684236227211468,156.40899021905884
1.57,-1.0867489406819975,0.11651511534128617,160.16768131324858
1.58,-1.1836722292269053,0.06669309887990817,160.8971055265885
1.59,-1.1741171854836678,0.07498826043213555,160.38144573566697
1.6,-1.224638106424923,0.0512513366057618,158.81008971824068
1.61,-1.1955336628392,0.06373236429511316,155.94958422351056
1.62,-1.2306237372755717,0.045329867436171796,153.1893979971961
1.63,-1.1866375876299788,0.06253275631679105,150.61953711189452
1.64,-1.216950140194732,0.04178209064921916,148.6225273761439
1.65,-1.1705477725910793,0.0702408756668608,146.15392332251415
1.66,-1.1830681747373903,0.06373236429511316,144.17941510491283
1.67,-1.1503394042145771,0.07440121822997792,142.35022919202578
1.68,-1.1741171854836678,0.05957202173199604,140.74605846063176
1.69,-1.123596264542413,0.08685672234532242,139.1634516841308
1.7,-1.1497353497250622,0.0702408756668608,137.95211995709334
1.71,-1.0962490703807335,0.10760738801289431,136.96486584829267
1.72,-1.1319431993066202,0.08744376454748005,136.2804446712514
1.73,-1.1021797871868808,0.1016859188433043,135.19193373077889
1.74,-1.145012741897945,0.08389598776052741,134.0921720312317
1.75,-1.1200268516498242,0.10109887664114667,132.824586508821
1.76,-1.1521515676831222,0.07853603721908818,130.89414376426208
1.77,-1.1224430696078842,0.09277819151491243,129.04339389648194
1.78,-1.1604435884028281,0.06669309887990817,128.2577158877688
1.79,-1.1170614932467504,0.0981126184823448,127.93238143786013
1.8,-1.145012741897945,0.08626968014316479,127.96613371508408
1.81,-1.1105267219510881,0.09872518425850929,128.86338175128753
1.82,-1.1432005784294,0.07794899501693055,129.53655216925415
1.83,-1.1057492000794695,0.0951518838975498,129.97439420990935
1.84,-1.145012741897945,0.07618786841045766,130.2097225872208
1.85,-1.091526462553616,0.10286000324761956,130.70381842324923
1.86,-1.0932837119776597,0.09336523371707006,131.3657380821412
1.87,-1.0273319445315214,0.10880699599121642,132.2292338411207
1.88,-1.027881084976535,0.10523369563025693,133.0036610907592
1.89,-0.999984750369842,0.11531550736296406,133.99091519955985
1.9,-1.0035541632624307,0.11531550736296406,134.45125875836433
1.91,-0.9494089153840856,0.1793796781201663,133.89059593114422
1.92,-1.0261238355524913,0.1443868581567702,133.3514970588172
1.93,-1.0350199107617124,0.13726578100885806,132.70082815899983
1.94,-1.1004225377628372,0.07498826043213555,132.0276577410332
1.95,-1.089110244595556,0.08685672234532242,131.1416604639044
1.96,-1.1117348309301183,0.08090972960172556,130.3222301779673
1.97,-1.069505930708569,0.1016859188433043,129.4137313826892
1.98,-1.0998184832733222,0.0714404836451829,128.60555185582675
1.99,-1.0635752139024217,0.08626968014316479,127.6182977470261
2.0,-1.0950958754462048,0.06253275631679105,126.74261366571575
2.01,-1.0600058010098332,0.0767749106126153,125.7778610750644
2.02,-1.1497353497250622,0.04474282523401416,124.94718003005264
2.03,-1.0356239652512274,0.10582073783241457,124.28526037116066
2.04,-0.6646795946445122,0.23394907934681908,124.37526644375787
2.05,0.24837622327967027,0.3994439332072571,124.66684861644258
2.06,-0.19214424171027333,-0.03177684963853259,124.48777403450438
2.07,-0.6337629875902442,-0.20497982284904037,124.31901264838461
2.08,-1.1830681747373903,-0.14507599465495521,124.22994413904362
2.09,-1.140839274515841,-0.02049542992750335,123.97117668032664
2.1,-1.0344158562721975,0.021005901407640422,123.75834982116449
2.11,-0.9423250036434097,0.07082791786901843,123.74709906208983
2.12,-0.956547741169263,0.05957202173199604,123.67959450764192
2.13,-0.9167350589057739,0.07202752584734054,123.47801840755443
2.14,-0.8983388539978169,0.08389598776052741,123.53427220292768
2.15,-0.8447976606089869,0.11531550736296406,124.2965111302353
2.16,-0.8727489092601812,0.07914860299525267,124.61059482106933
2.17,-0.8162972715127788,0.1111806883738538,124.1174365482971
2.18,-0.8388669438028394,0.08744376454748005,123.65709298949263
2.19,-0.7746724257807447,0.12481027689351355,123.47801840755443
2.2,-0.7830193605449521,0.10347256902378404,123.50051992570373
2.21,-0.7348597435172557,0.12600988487183568,123.62334071226867
2.22,-0.721790200925931,0.1289706194566307,123.58958843504472
2.23,-0.6444712262680102,0.17345820895057631,123.42176461218116
2.24,-0.6171240321063308,0.1912481400333532,123.24175246698674
2.25,-0.5178943536923657,0.2541127028122333,123.26425398513605
2.26,-0.4899431050411714,0.25886008757750806,123.62334071226867
2.27,-0.40729746806661826,0.31462909678248296,124.99218306635125
2.28,-0.41267904442775194,0.2944399497430618,127.47203787905563
2.29,-0.37045014420620287,0.3045472850497758,133.23898946807066
2.3,-0.4055402186425746,0.2606467377579878,140.48729100191477
2.31,-0.472700095067743,0.20487772855301295,148.36469748068313
2.32,-0.5903808924341665,0.12539731909567117,154.7823179695155
2.33,-0.6522141065427026,0.09277819151491243,159.80859458611596
2.34,-0.7622069376789351,0.021005901407640422,161.59277746270442
2.35,-0.7574294158073164,0.03644766368178678,161.7165358125256
2.36,-0.8210198793398962,-0.015161002960070972,160.41519801289093
2.37,-0.8032277289214541,0.005589662707500914,157.83408636851465
2.38,-0.8382628893133245,-0.030577241660210478,155.0288971059016
2.39,-0.8008115109633941,-0.008039925812158849,151.97712870690242
2.4,-0.8382628893133245,-0.04897973851915184,149.6210322440192
2.41,-0.7799990880973771,-0.0039051068230485835,147.47776264029812
2.42,-0.8156932170232638,-0.0471930883386721,145.86234114982943
2.43,-0.750290590022139,0.0008422779422261651,143.94314916434516
2.44,-0.7782418386733334,-0.032363891840690225,142.40648298739904
2.45,-0.7283249722215933,0.005002620505343284,140.9363838016446
2.46,-0.76160288318942,-0.026442422671100214,140.0053834882172
2.47,-0.730686276135152,-0.006865841407843588,139.06313241571516
2.48,-0.7532559484252127,-0.026442422671100214,138.0749407436583
2.49,-0.7235474503499747,0.002041885920548279,136.70609838957571
2.5,-0.7681376544850824,-0.03948496898860235,135.2594382852268
2.51,-0.729478167156122,-0.0021184566425688396,133.77808834039772
2.52,-0.7758805347597747,-0.04244570357339735,132.824586508821
2.53,-0.7443598732159917,-0.011026183970960706,131.74732632742314
2.54,-0.7788458931628485,-0.043058269349561834,130.2097225872208
2.55,-0.7360129384517844,-0.009826575992638593,128.78462643776496
2.56,-0.7687417089745974,-0.04481939595603472,128.21271285147017
2.57,-0.7164086245647974,-0.006278799205685958,128.5267965423042
2.58,-0.7259087542635333,-0.04364531155171946,129.2562207556441
2.59,-0.680165355193897,-0.0032925410468841,130.06440028250654
2.6,-0.6962002561882953,-0.03295093404284785,130.56880931435342
2.61,-0.6105892608106686,0.025166243970757538,131.34323656399192
2.62,-0.6617142362414385,0.013884824259728297,131.69107253204987
2.63,-0.6807694096834119,0.026952894151237285,132.30798915464325
2.64,-0.7687417089745974,-0.040072011190759975,133.05991488613247
2.65,-0.7473252316190654,-0.029403157255895217,133.49775692678764
2.66,-0.8008115109633941,-0.06380893501713372,133.7330853040991
2.67,-0.7835685009899658,-0.04660604613651447,134.1709273447543
2.68,-0.8067971418140428,-0.07685148133463585,134.21593038105289
2.69,-0.7782418386733334,-0.045406438158192355,133.5315092040116
2.7,-0.7990542615393504,-0.07389074674984085,132.824586508821
2.71,-0.7746724257807447,-0.05786194227353686,131.94890242751063
2.72,-0.8037768693664677,-0.08514664288686323,131.44449339566378
2.73,-0.8394709982923545,-0.06559558519761347,130.74882145954783
2.74,-0.7687417089745974,-0.04068457696692446,129.78313130564027
2.75,-0.31756791935138917,0.17404525115273392,128.5267965423042
2.76,0.45639062385083784,0.22682800219890695,127.38203180645843
2.77,0.04865384342820868,-0.17473438765091898,126.47353301118034
2.78,-0.44952636828816733,-0.37876983826170574,126.24945539294353
2.79,-0.9250819936699812,-0.2399726428124365,126.24945539294353
2.8,-0.9280473520730549,-0.15574484858982,125.66535348431788
2.81,-0.7425477097474467,-0.045406438158192355,124.74560392996514
2.82,-0.7283249722215933,-0.06322189281497609,124.274009612086
2.83,-0.6724224749192046,-0.0039051068230485835,124.1399380664464
2.84,-0.6920267888061916,-0.03415054202116997,124.24119489811827
2.85,-0.65935293232788,0.0008422779422261651,124.274009612086
2.86,-0.6528181610322176,-0.005079191227363844,124.274009612086
2.87,-0.6225056084674645,0.02041885920548279,124.40901872098182
2.88,-0.6415058678649366,-0.007452883610001218,124.15118882552106
2.89,-0.5981237727088589,0.03524805570346467,123.75834982116449
2.9,-0.6052625984940362,0.010924089674933293,124.00492895755059
2.91,-0.5606723943589285,0.05362502898839918,124.12868730737176
2.92,-0.5666031111650758,0.03287436332082729,123.92617364402804
2.93,-0.4887349960621414,0.10227296104546192,124.24119489811827
2.94,-0.481596170276964,0.0921911493127548,124.42026948005648
2.95,-0.41207498993823694,0.1544686698894773,124.22994413904362
2.96,-0.38648504520060123,0.1627638314417047,123.91492288495338
2.97,-0.3133944519692855,0.22506687559243405,123.92617364402804
2.98,-0.2848391488285761,0.23632277172945645,125.37377131163316
2.99,-0.22185273978551137,0.28851848057347185,129.0546446555566
3.0,-0.24145705367249837,0.24760419144048568,134.12592430845567
3.01,-0.26583888943110406,0.2327749949425038,140.9363838016446
3.02,-0.39840139285739723,0.12600988487183568,147.893103162804
3.03,-0.472096040578228,0.1016859188433043,154.92857783748596
3.04,-0.6016931856014475,-0.0003318064620890953,159.7645291130736
3.05,-0.6385405094618629,0.007376312887980658,162.22094484437244
3.06,-0.6914227343166767,-0.028229072851579957,161.7615388488242
3.07,-0.6962002561882953,-0.013986918555755712,160.31394118121906
3.08,-0.7253596138185197,-0.043058269349561834,158.484755268332
3.09,-0.7104779077586499,-0.015161002960070972,155.89333042813732
3.1,-0.750290590022139,-0.06439597721929136,153.26721574746244
3.11,-0.720582091946901,-0.02049542992750335,150.42921177088166
3.12,-0.7366169929412993,-0.049566780721309475,148.37594823975778
3.13,-0.6968043106778103,-0.007452883610001218,146.45675625427353
3.14,-0.729478167156122,-0.05135343090178922,144.75132869120762
3.15,-0.6884573759136029,-0.000944372238253579,143.0796534053657
3.16,-0.7075125493555763,-0.03295093404284785,141.83456940110426
3.17,-0.6813185501284256,0.006176704909658544,140.56604631543732
3.18,-0.7075125493555763,-0.029990199458052848,139.46628461589017
3.19,-0.6879082354685893,0.007963355090138288,138.58028733876137
3.2,-0.7140473206512387,-0.02348168808630521,137.86211388449613
3.21,-0.7092697987796199,0.00025523574006853486,136.47077001226424
3.22,-0.7277209177320784,-0.01990838772534572,134.05841975400776
3.23,-0.719978037457386,0.006789270685823028,131.8260816409457
3.24,-0.7479292861085803,-0.02406873028846284,130.3447316961166
3.25,-0.7128392116722087,0.023379593790277795,129.40248062361457
3.26,-0.7479292861085803,-0.025855380468942583,129.14371316489758
3.27,-0.7164086245647974,0.01983181700332516,129.59280596462742
3.28,-0.750894644511654,-0.022282080107983094,129.90688965546144
3.29,-0.7247555593290047,0.01625851664236567,130.01939724620794
3.3,-0.7479292861085803,-0.01873430332103046,130.59131083250273
3.31,-0.7235474503499747,0.022792551588120165,131.35448732306656
3.32,-0.76039477421039,-0.02465577249062047,131.70232329112454
3.33,-0.731894385114182,0.023966635992435426,132.12891457270507
3.34,-0.7532559484252127,-0.010413618194796224,132.65582512270123
3.35,-0.6908735938716629,0.03940839826658178,133.66558074965118
3.36,-0.6962002561882953,0.0014293201443837953,134.1709273447543
3.37,-0.6540262700112476,0.03762174808610204,134.1709273447543
3.38,-0.6486446936501139,0.018632209025003045,134.31624964946852
3.39,-0.6016931856014475,0.07440121822997792,134.12592430845567
3.4,-0.6320057381662005,0.06906679126254554,133.13867019965502
3.41,-0.6742346383877497,0.06906679126254554,131.83733240002036
3.42,-0.7461171226400354,0.025166243970757538,131.41074111843983
3.43,-0.731894385114182,0.04711651761665154,130.8491407279635
3.44,-0.7883460228615844,-0.0032925410468841,130.19847182814615
3.45,-0.7818112515659221,0.021618467183804904,129.39122986453992
3.46,-0.7806031425868921,0.0032159703248635396,128.69555792842397
3.47,-0.770498958398641,0.03170027891651203,127.71861701544175
3.48,-0.8032277289214541,-0.018121737544865978,126.60854212007615
3.49,-0.7782418386733334,0.025166243970757538,125.6212880112755
3.5,-0.7883460228615844,0.00025523574006853486,125.0934398980231
3.51,-0.8264014557010299,0.044155783031856535,124.93686683423421
3.52,-0.7283249722215933,0.04591690963832942,125.07093837987381
3.53,-0.2574919546668967,0.26835485710805757,125.65410272524323
3.54,0.6121817681012081,0.3555433859154691,125.66535348431788
3.55,-0.036353097459903096,-0.16107927555725235,124.85811152071165
3.56,-0.5107555279071884,-0.26667030122360524,124.36401568468321
3.57,-0.9405128401748646,-0.13024679815697335,124.28526037116066
3.58,-0.9190963628193326,-0.05847450804970134,124.26275885301135
3.59,-0.7538600029147277,0.03703470588394441,124.30776188930996
3.6,-0.7378251019203294,0.022205509385962535,124.45402175728043
3.61,-0.7075125493555763,0.07202752584734054,124.68935013459188
3.62,-0.7104779077586499,0.05778537155151629,124.66684861644258
3.63,-0.690269539382148,0.08448302996268504,124.274009612086
3.64,-0.6783531917253519,0.07261456804949817,123.97117668032664
3.65,-0.6450752807575252,0.11947584992608118,123.64584223041797
3.66,-0.650456857118659,0.09456484169539217,123.19768699394436
3.67,-0.6200893905094045,0.13075726963711043,122.97267181245134
3.68,-0.6159708371718022,0.11235477277816905,123.51177068477838
3.69,-0.5868114795415779,0.15625532006995704,123.75834982116449
3.7,-0.5850542301175342,0.12777101147830855,123.60083919411936
3.71,-0.5315679507732054,0.18532667086376317,123.58958843504472
3.72,-0.5089433644386434,0.18828740544855818,123.55677372107698
3.73,-0.44354073743751865,0.25235157620576043,123.30925702143465
3.74,-0.4037280551740296,0.26243338793846754,123.13018243949645
3.75,-0.33239471136675747,0.3347927202478972,123.870857411911
3.76,-0.3133944519692855,0.3217246503563882,126.09194476589842
3.77,-0.24919993394719073,0.38640138688975495,131.24197973232006
3.78,-0.2669920843656327,0.33537976245005485,138.04212602969056
3.79,-0.2842350943390611,0.33241902786525984,146.69208463158498
3.8,-0.3841237412870426,0.24581754126000593,153.8288161379388
3.81,-0.46913068217515436,0.21495954028572006,159.0126033815844
3.82,-0.5802767082459155,0.13075726963711043,161.8731088763145
3.83,-0.6314016836766856,0.1360916966045428,162.7600437166995
3.84,-0.6980124196568404,0.06845422548638105,162.04187026243426
3.85,-0.700977778059914,0.1016859188433043,160.24643662677116
3.86,-0.7568253613178014,0.0512513366057618,158.03660003185837
3.87,-0.7372210474308144,0.08803080674963767,155.13015393757345
3.88,-0.7372210474308144,0.06194571411463341,152.26871087958713
3.89,-0.7235474503499747,0.08626968014316479,149.50852465327267
3.9,-0.7283249722215933,0.060746106136311304,147.35494185373318
3.91,-0.6860960720000443,0.10523369563025693,145.33449303657704
3.92,-0.7050963313975163,0.06845422548638105,143.24747722822923
3.93,-0.6926308432957067,0.10109887664114667,141.51954814701404
3.94,-0.6837347680864856,0.08981745693011742,140.63355086988523
3.95,-0.6706652254951609,0.11827624194775906,139.65754752015923
3.96,-0.7081166038450913,0.07440121822997792,138.80436495699817
3.97,-0.689061430403118,0.11355438075649117,137.8733646435708
3.98,-0.6932348977852216,0.10109887664114667,137.06518511670834
3.99,-0.700373723570399,0.1265969270739933,135.71884428077504
4.0,-0.728874112666607,0.07320161025165581,134.28249737224456
4.01,-0.6949921472092653,0.12302362671303381,132.7795834725224
4.02,-0.7413945148129181,0.0767749106126153,131.63481873667664
4.03,-0.7164086245647974,0.11827624194775906,130.89414376426208
4.04,-0.7413945148129181,0.06906679126254554,130.613812350652
4.05,-0.7223393413709447,0.11827624194775906,131.2982335276933
4.06,-0.7283249722215933,0.09693853407802955,131.57856494130337
4.07,-0.721790200925931,0.11176773057601143,131.39949035936516
4.08,-0.7372210474308144,0.07973564519741029,131.97140394565994
4.09,-0.7253596138185197,0.1111806883738538,132.8020849906717
4.1,-0.7384291564098444,0.08507007216484268,133.59807619520328
4.11,-0.7229433958604596,0.11947584992608118,134.36125268576714
4.12,-0.731894385114182,0.08981745693011742,134.776593208273
4.13,-0.740790460323403,0.10347256902378404,135.20318448985353
4.14,-0.729478167156122,0.0892304147279598,135.3035037582692
4.15,-0.721790200925931,0.11947584992608118,135.31475451734383
4.16,-0.6873041809790743,0.10939403819337405,135.22568600800284
4.17,-0.6629223452204686,0.12718396927615094,134.6640856175265
4.18,-0.6421099223544515,0.10998108039553169,133.44150313141438
4.19,-0.5844501756280192,0.14556094256108545,132.19548156389675
4.2,-0.5909849469236815,0.11947584992608118,131.76982784557245
4.21,-0.5719846875262095,0.19004853205503108,131.19697669602144
4.22,-0.6111933153001835,0.15388162768731967,130.58006007342806
4.23,-0.7033390819734726,0.1443868581567702,129.86188661916282
4.24,-0.7324435255591957,0.08507007216484268,129.1212116467483
4.25,-0.7253596138185197,0.13310543844574094,128.07770374257436
4.26,-0.7378251019203294,0.09693853407802955,127.01169432025115
4.27,-0.7324435255591957,0.12422323469135592,126.12569704312237
4.28,-0.7413945148129181,0.08152229537789003,125.61003725220085
4.29,-0.7283249722215933,0.12006289212823881,125.41877434793177
4.3,-0.7425477097474467,0.0826963797822053,125.61003725220085
4.31,-0.7235474503499747,0.11651511534128617,126.20445235664492
4.32,-0.7562213068282864,0.09277819151491243,126.14819856127167
4.33,-0.728874112666607,0.16633713180266418,125.47502814330502
4.34,-0.41207498993823694,0.23869646411209383,125.13844293432172
4.35,0.37138368296272606,0.42968936840537847,125.13844293432172
4.36,0.27511936295183465,0.12302362671303381,125.22844900691892
4.37,-0.27358176970579645,-0.15395819840934025,125.23969976599358
4.38,-0.8602834211583715,-0.08397255848254798,125.18344597062031
4.39,-0.8816449844694022,0.0387958324904173,125.19469672969497
4.4,-0.7633601326134637,0.07381417602782028,125.12719217524706
4.41,-0.6670958126025722,0.13489208862622068,124.94718003005264
4.42,-0.650456857118659,0.12064993433039643,125.0484368617245
4.43,-0.6105892608106686,0.17225860097225418,124.98093230727659
4.44,-0.6010891311119325,0.1390524311893378,124.17369034367036
4.45,-0.5767072953533268,0.18828740544855818,123.52302144385303
4.46,-0.5874155340310928,0.15268201970899756,124.00492895755059
4.47,-0.5535335685737511,0.19183518223551083,124.38651720283252
4.48,-0.5523254595947211,0.17167155877009657,124.37526644375787
4.49,-0.5113595823967034,0.21495954028572006,124.54402782987763
4.5,-0.5030126476324961,0.17700598573752893,124.47652327542973
4.51,-0.46973473666466936,0.2286146523793867,124.0499319938492
4.52,-0.44952636828816733,0.21378545588140482,123.54552296200234
4.53,-0.38890126315866125,0.2802233190212444,123.2305017079121
4.54,-0.3460683084475972,0.2796362768190868,123.20893775301901
4.55,-0.27358176970579645,0.34604861638491957,123.46676764847977
4.56,-0.2503531288817194,0.34308788180012456,123.98242743940129
4.57,-0.19390149113431698,0.41131239512044393,125.63160120709392
4.58,-0.15469286336034294,0.3887495556983855,127.99988599230804
4.59,-0.1338804404943259,0.42968936840537847,132.37549370909116
4.6,-0.15941547118746027,0.36682480562649833,139.08563393386447
4.61,-0.2194914358719527,0.3306323776847801,146.73708766788357
4.62,-0.2943392785273121,0.2505649260252807,153.67130551089366
4.63,-0.38769315417963124,0.23394907934681908,158.87759427268858
4.64,-0.473304149557258,0.15684236227211468,161.4137028807662
4.65,-0.5107555279071884,0.1752193355570492,162.0081179852103
4.66,-0.5589151449348848,0.13075726963711043,160.7405324627996
4.67,-0.5659990566755608,0.14497390035892782,158.14817005934867
4.68,-0.5761032408638118,0.1111806883738538,155.44423762840748
4.69,-0.5600683398694134,0.1354791308283783,152.06713477949964
4.7,-0.5594642853798985,0.12302362671303381,148.0721777447422
4.71,-0.5446374933645302,0.14497390035892782,145.30167832260932
4.72,-0.5553457320422961,0.1046466534280993,143.4837431687969
4.73,-0.5226169615194831,0.15684236227211468,141.67705877405916
4.74,-0.5101514734176734,0.13489208862622068,140.0728880426651
4.75,-0.5006513437189374,0.16513752382434208,138.7377979658065
4.76,-0.49109629997570003,0.1443868581567702,137.55928095273677
4.77,-0.5012553982084524,0.16513752382434208,136.07793100790767
4.78,-0.4970819308263487,0.13963947339149543,134.21593038105289
4.79,-0.49823512576087736,0.17583190133321366,132.57706980917868
4.8,-0.48576963765906767,0.1544686698894773,131.49980962778082
4.81,-0.513720886310262,0.16751121620697945,130.5013047599055
4.82,-0.5018045386534661,0.1479346349437228,130.06440028250654
4.83,-0.5030126476324961,0.17463229335489155,130.24347486444475
4.84,-0.5077901695041147,0.13726578100885806,129.92939117361072
4.85,-0.4964778763368337,0.16575008960050655,129.04339389648194
4.86,-0.5095474189281584,0.13134431183926804,128.43679046970698
4.87,-0.5018045386534661,0.1580419702504368,128.44804122878165
4.88,-0.5196516031164095,0.11768919974560144,129.009641619258
4.89,-0.49944323473990737,0.16217678923954706,130.44598852778847
4.9,-0.5000472892294224,0.12838357725447305,132.19548156389675
4.91,-0.4905471595306864,0.16692417400482182,133.575574677054
4.92,-0.4946657128682887,0.14022651559365307,133.99091519955985
4.93,-0.4863736921485827,0.15921605465475205,134.14842582660498
4.94,-0.4774776169393617,0.1360916966045428,134.5075125537376
4.95,-0.42454047804004663,0.1847141050875987,134.58626786726015
4.96,-0.40850557704564827,0.1443868581567702,134.65283485845185
4.97,-0.38351968679752757,0.1764189435353713,134.59751862633482
4.98,-0.3359641242593462,0.16513752382434208,134.462509517439
4.99,-0.31279039747977044,0.20429068635085532,133.77808834039772
5.0,-0.33481092932481754,0.18650075526807844,133.0036610907592
5.01,-0.37341550260927653,0.20311660194654005,131.97140394565994
5.02,-0.44354073743751865,0.14617350833724993,130.73757070047319
5.03,-0.45013042277768234,0.16575008960050655,128.97588934203404
5.04,-0.472096040578228,0.13726578100885806,127.3042140561921
5.05,-0.4649572147930507,0.15684236227211468,126.49603452932963
5.06,-0.4655612692825657,0.1390524311893378,127.01169432025115
5.07,-0.47863081187389034,0.1473475927415652,127.53954243350354
5.08,-0.4756654534708167,0.12600988487183568,127.31546481526674
5.09,-0.4602346069659333,0.1574294044742723,126.54103756562824
5.1,-0.4655612692825657,0.12481027689351355,125.55378345682759
5.11,-0.5285476783256304,0.16513752382434208,124.47652327542973
5.12,-0.3532071342327745,0.1692978663874592,124.00492895755059
5.13,0.18061229236498685,0.34308788180012456,124.36401568468321
5.14,1.0597861448318278,0.39765728302677733,124.57778010710159
5.15,0.18654300917113417,-0.14446342887879074,124.96968154820195
5.16,-0.37879707897041026,-0.10296209754364696,125.53128193867829
5.17,-0.6819226046179406,0.011511131877090923,125.92412094303486
5.18,-0.5844501756280192,0.05423759476456366,125.48627890237968
5.19,-0.4293179999116653,0.14497390035892782,124.62184558014397
5.2,-0.37045014420620287,0.1420131657741328,124.1399380664464
5.21,-0.35024177582970084,0.18650075526807844,123.8033528574631
5.22,-0.3342068748353025,0.15329458548516206,124.1174365482971
5.23,-0.32525588558158014,0.1847141050875987,124.74560392996514
5.24,-0.29022072518970976,0.18532667086376317,125.0484368617245
5.25,-0.2765471281088701,0.2001303437877382,124.95843078912729
5.26,-0.23613039135586605,0.1947959168203058,124.53277707080298
5.27,-0.2503531288817194,0.2167461904661998,124.28526037116066
5.28,-0.23074881499473235,0.19599552479862795,124.17369034367036
5.29,-0.19033207824172832,0.24285680667521092,123.57833767597006
5.3,-0.1612276346560053,0.22682800219890695,123.04017636689925
5.31,-0.13624174440788459,0.27606297645812733,123.35426005773326
5.32,-0.07979010666048218,0.2731022418733323,124.43152023913112
5.33,-0.01795689255194609,0.3347927202478972,124.8018577253384
5.34,0.033772137368338985,0.351383043352352,124.68935013459188
5.35,0.08072364541700537,0.4089387027378066,124.53277707080298
5.36,0.12767515346567176,0.41368608750308133,124.67809937551723
5.37,0.15623045660638113,0.439184137935928,126.58604060192685
5.38,0.14134875054651144,0.3875754712940702,131.3657380821412
5.39,0.11400155638483207,0.3852017789114328,137.88461540264544
5.4,0.008182192630703265,0.28318405360603943,145.22292300908674
5.41,-0.07918605217096718,0.26776781490589996,152.8753143063621
5.42,-0.14398462468257692,0.19066109783119556,158.73227196797433
5.43,-0.21828332689292268,0.1954084825964703,161.73903733067488
5.44,-0.2568879001773817,0.1473475927415652,161.52621047151274
5.45,-0.2610613675594854,0.17700598573752893,159.79828139029755
5.46,-0.2854432033180911,0.13014470386094593,156.5552500870293
5.47,-0.27237366072676644,0.16633713180266418,152.72905443839161
5.48,-0.2694083023236927,0.14379981595461255,149.65478452124316
5.49,-0.24502646656508706,0.1704974743657813,147.26493578113596
5.5,-0.24623457554411707,0.15092089310252468,145.68232900463502
5.51,-0.23371417339780604,0.17700598573752893,143.84282989592953
5.52,-0.22004057631696633,0.15684236227211468,141.37422584229978
5.53,-0.204005675322568,0.19716960920294319,139.24220699765337
5.54,-0.22064463080648133,0.16633713180266418,137.13268967115624
5.55,-0.21828332689292268,0.18828740544855818,134.6640856175265
5.56,-0.20224842589852435,0.1847141050875987,132.55456829102937
5.57,-0.21828332689292268,0.2001303437877382,131.57856494130337
5.58,-0.22657534761262868,0.17225860097225418,131.3207350458426
5.59,-0.21592202297936403,0.19362183241599057,130.67006614602528
5.6,-0.22481809818858503,0.16455048162218444,129.73906583259787
5.61,-0.2295956200602037,0.19420887461814818,128.44804122878165
5.62,-0.2467837159891307,0.15329458548516206,127.13545267007233
5.63,-0.22542215267810004,0.20074290956390267,126.18195083849562
5.64,-0.2473877704786457,0.1443868581567702,126.10319552497306
5.65,-0.2325609784632774,0.1847141050875987,126.92262581091016
5.66,-0.22481809818858503,0.16692417400482182,127.72986777451639
5.67,-0.19626279504787564,0.1977821749791077,128.98714010110868
5.68,-0.16776240595166764,0.1793796781201663,130.53505703712946
5.69,-0.13920710281095824,0.19066109783119556,131.8926486321374
5.7,-0.11482526705235253,0.1728456431744118,132.38674446816583
5.71,-0.0845127144875995,0.2096251133182877,132.70082815899983
5.72,-0.06254709668705383,0.2096251133182877,133.20617475410293
5.73,-0.09818631156843918,0.22920169458154432,133.40775085419043
5.74,-0.17490123173684496,0.18354002068328343,133.76683758132305
5.75,-0.20993639212871532,0.1859137130659208,134.03591823585847
5.76,-0.23014476050521734,0.15268201970899756,134.3950049629911
5.77,-0.23552633686635105,0.18412706288544106,133.9346614041866
5.78,-0.25452659626382307,0.1360916966045428,132.76833271344773
5.79,-0.24859587945767572,0.1544686698894773,131.46699491381307
5.8,-0.2384916952694247,0.15388162768731967,130.0756510415812
5.81,-0.23195692397376236,0.17345820895057631,128.53804730137884
5.82,-0.22542215267810004,0.14497390035892782,127.21420798359487
5.83,-0.2283875110811737,0.17700598573752893,126.61979287915081
5.84,-0.29022072518970976,0.1515079353046823,127.05669735654976
5.85,-0.047665390627184126,0.2286146523793867,127.02294507932581
5.86,0.5663834549870703,0.34666118216108405,126.46228225210568
5.87,1.2244184502469175,0.42256829125746637,125.61003725220085
5.88,0.31317479579128005,-0.14150269429399573,124.68935013459188
5.89,-0.2854432033180911,-0.033563499819012334,124.08368427107315
5.9,-0.4578183890078733,0.012123697653255407,123.88210817098565
5.91,-0.3306374619427138,0.11827624194775906,123.75834982116449
5.92,-0.20164437140900934,0.14083908136981754,123.64584223041797
5.93,-0.1481580920646806,0.1752193355570492,124.22994413904362
5.94,-0.14931128699920926,0.16039013905906732,125.12719217524706
5.95,-0.11185990864927887,0.19954330158558056,125.32876827533457
5.96,-0.0904983453382482,0.18116632830064605,124.67809937551723
5.97,-0.06370029162158247,0.2167461904661998,123.8258543756124
5.98,-0.048873499606214135,0.19242222443766843,123.39926309403187
5.99,-0.0185609470414611,0.22682800219890695,123.28675550328535
6.0,-0.013783425169842413,0.20549029432917743,123.70209602579123
6.01,0.016529127394910623,0.2505649260252807,124.40901872098182
6.02,0.02839056100720529,0.22920169458154432,125.0259353435752
6.03,0.06172338601953336,0.2659811647254202,124.85811152071165
6.04,0.11339750189531707,0.2689418993102152,123.97117668032664
6.05,0.16095306443349847,0.3223372161325527,123.44426613033046
6.06,0.19840444278342884,0.32292425833471033,123.2530032260614
6.07,0.2762725578863633,0.39112324808102283,122.91641801707807
6.08,0.3250362294035747,0.3941095062398247,123.29800626236
6.09,0.3577100858818864,0.4326501029901735,125.32876827533457
6.1,0.38983480191518444,0.42910232620322086,129.51405065110487
6.11,0.3684183245596524,0.41368608750308133,135.04567386280843
6.12,0.29472367683882167,0.3413012316196448,142.20396932405532
6.13,0.19483502989084017,0.2980132501040213,149.183190203364
6.14,0.09379318800833004,0.21794579844452194,155.28766456461858
6.15,0.01477187797086697,0.21794579844452194,159.42794390409026
6.16,-0.04113061933152178,0.16633713180266418,161.19993845834784
6.17,-0.06908186798271616,0.1793796781201663,160.8971055265885
6.18,-0.08929023635921819,0.14083908136981754,158.75477348612364
6.19,-0.09703311663391054,0.16337639721786917,156.27491867341922
6.2,-0.09582500765488053,0.14497390035892782,153.72755930626693
6.21,-0.09582500765488053,0.16633713180266418,151.0573791525497
6.22,-0.09582500765488053,0.1390524311893378,148.0721777447422
6.23,-0.0845127144875995,0.16158974703738943,145.37949607287564
6.24,-0.05420016192284646,0.1515079353046823,143.04590112814174
6.25,-0.06847781349320116,0.15505571209163493,141.10514518776438
6.26,-0.043491923245080444,0.14913424292204494,139.53378917033808
6.27,-0.038165260928448116,0.17345820895057631,138.56903657968672
6.28,-0.036353097459903096,0.1598030968569097,137.60428398903537
6.29,-0.0423387283105518,0.18057928609848842,136.43701773504029
6.3,-0.03338773905682943,0.1728456431744118,134.98942006743516
6.31,-0.04052656484200678,0.18412706288544106,133.87934517206958
6.32,-0.03519990252537445,0.16633713180266418,132.68957739992518
6.33,-0.035803957014889455,0.18828740544855818,130.88289300518744
6.34,-0.060734933218508806,0.15684236227211468,129.35747758731597
6.35,-0.04645728164815411,0.18708779747023607,128.72931020564792
6.36,-0.07204722638578982,0.1420131657741328,128.5717995786028
6.37,-0.06133898770802381,0.17225860097225418,128.4817935060056
6.38,-0.048873499606214135,0.1627638314417047,128.7958771968396
6.39,-0.061943042197538815,0.16751121620697945,129.10996088767362
6.4,-0.01202617574579876,0.1704974743657813,129.14371316489758
6.41,0.005820888717144605,0.18354002068328343,129.39122986453992
6.42,0.02723736607267664,0.1627638314417047,129.90688965546144
6.43,0.0777582870139317,0.19362183241599057,130.51255551898015
6.44,0.09500129698736007,0.18412706288544106,131.3657380821412
6.45,0.07594612354538668,0.2232802254119543,132.9361565363113
6.46,0.055188614723871016,0.19004853205503108,134.5075125537376
6.47,-0.047061336137669114,0.1692978663874592,134.87785003994486
6.48,-0.045304086713625465,0.14913424292204494,134.24968265827684
6.49,-0.06847781349320116,0.16158974703738943,133.43025237233974
6.5,-0.08929023635921819,0.13310543844574094,132.7795834725224
6.51,-0.07797794319193715,0.15209497750683992,131.97140394565994
6.52,-0.06908186798271616,0.13310543844574094,130.8050752549211
6.53,-0.08215141057404084,0.1485472007198873,129.82813434193886
6.54,-0.05304696698831782,0.15209497750683992,129.04339389648194
6.55,-0.06551245509012749,0.1485472007198873,128.35897271944066
6.56,-0.13091508209125224,0.13014470386094593,127.84237536526291
6.57,-0.025699772826638444,0.19658256700078555,127.67455154239937
6.58,0.4058697029095828,0.29147921515826686,126.96762884720877
6.59,1.271369958295584,0.4089387027378066,125.7553595569151
6.6,0.8208002231618907,0.04295617505353442,124.74560392996514
6.61,0.20318196465504754,-0.08455960068470561,124.30776188930996
6.62,-0.2866513122971211,-0.028816115053737587,125.01468458450054
6.63,-0.22717940210214368,0.0767749106126153,125.27345204321753
6.64,-0.07797794319193715,0.11472846516080643,125.01468458450054
6.65,-0.0007138825785177346,0.15921605465475205,124.57778010710159
6.66,0.0207025947770143,0.1544686698894773,124.30776188930996
6.67,0.03673749577141265,0.17700598573752893,124.53277707080298
6.68,0.06408468993309202,0.16513752382434208,125.08218913894845
6.69,0.07122351571826936,0.1847141050875987,124.90311455701026
6.7,0.09857070987994873,0.17879263591800867,123.92617364402804
6.71,0.11581371985337709,0.20311660194654005,123.44426613033046
6.72,0.12888326244470177,0.1829529784811258,123.58958843504472
6.73,0.15326509820330747,0.2232802254119543,123.88210817098565
6.74,0.1728694120902945,0.2013299517660603,124.01617971662525
6.75,0.18830025859517782,0.22149357523147456,123.93742440310268
6.76,0.22932104983769688,0.22978873678370196,123.83710513468705
6.77,0.2792928303339383,0.26776781490589996,123.71334678486588
6.78,0.33634852257085573,0.2867318303929921,123.36551081680791
6.79,0.38505728004356576,0.3312194198869377,123.53427220292768
6.8,0.43914761387740947,0.34012714721532955,124.28526037116066
6.81,0.49384200220076824,0.38994916367670757,125.20594748876962
6.82,0.5259667182340663,0.38224104432663786,128.88588326943682
6.83,0.530744240105685,0.39765728302677733,134.9556677902112
6.84,0.4980154695828719,0.33892753923700747,142.6193098465612
6.85,0.38505728004356576,0.2903051307539516,150.31670418013513
6.86,0.28994615496720294,0.2232802254119543,157.13841443239872
6.87,0.19900849727294384,0.1876748396723937,161.4924581942888
6.88,0.1502997398002338,0.14321277375245492,163.6685425119776
6.89,0.0920359385842864,0.1443868581567702,163.35445882114357
6.9,0.07418887412134303,0.11472846516080643,161.45870591706483
6.91,0.052772396765811,0.11355438075649117,158.4181882771403
6.92,0.06051527704050334,0.09872518425850929,155.10765241942417
6.93,0.05815397312694469,0.12184954230871856,152.51622757922948
6.94,0.052772396765811,0.08744376454748005,150.20419658938863
6.95,0.07594612354538668,0.1265969270739933,147.81434784928143
6.96,0.09143188409477139,0.1046466534280993,145.07666314111628
6.97,0.1003279593039924,0.1265969270739933,143.26997874637854
6.98,0.11103619798175841,0.0981126184823448,141.6208049786859
6.99,0.10631359015464109,0.11472846516080643,140.3419686972005
7.0,0.12652195853114312,0.10286000324761956,139.20845472042942
7.01,0.12827920795518677,0.13193135404142567,138.22120061162875
7.02,0.12295254563855444,0.10582073783241457,137.31270181635065
7.03,0.11339750189531707,0.12184954230871856,136.32544770755
7.04,0.11581371985337709,0.0951518838975498,134.9116023171688
7.05,0.12053632768049441,0.13134431183926804,133.63182847242723
7.06,0.10686273059965473,0.09931222646066692,132.21798308204606
7.07,0.1015360682830224,0.11176773057601143,130.86039148703813
7.08,0.11339750189531707,0.1046466534280993,129.95189269176004
7.09,0.0926399930738014,0.10939403819337405,129.70531355537392
7.1,0.10982808900272839,0.09931222646066692,129.59280596462742
7.11,0.10389737219658106,0.12126250010656092,129.58155520555277
7.12,0.10927894855771475,0.10109887664114667,129.985644968984
7.13,0.10510548117561107,0.1111806883738538,130.65881538695064
7.14,0.10329331770706605,0.08744376454748005,131.8035801227964
7.15,0.10570953566512609,0.09752557628018718,132.47675054076302
7.16,0.14612627241813014,0.0892304147279598,132.9361565363113
7.17,0.18061229236498685,0.12184954230871856,133.32899554066788
7.18,0.19961255176245885,0.09456484169539217,133.8230913766963
7.19,0.24716811430064026,0.1289706194566307,134.56376634911086
7.2,0.25727229848889127,0.11355438075649117,135.20318448985353
7.21,0.22520249650009458,0.1479346349437228,134.98942006743516
7.22,0.19428588944582653,0.11472846516080643,133.90184669021886
7.23,0.11339750189531707,0.10939403819337405,132.96990881353526
7.24,0.11339750189531707,0.07498826043213555,132.12891457270507
7.25,0.09022377511574138,0.08864337252580216,131.33198580491725
7.26,0.08072364541700537,0.06549349090158604,130.55755855527877
7.27,0.06408468993309202,0.07557530263429317,129.73906583259787
7.28,0.06644599384665067,0.05898497952983841,128.88588326943682
7.29,0.0771542325244167,0.08565711436700031,128.07770374257436
7.3,0.09736260090091872,0.06786718328422342,127.24796026081883
7.31,0.07358481963182803,0.0714404836451829,126.6422943973001
7.32,0.04266821257755998,0.06311979851894868,126.12569704312237
7.33,0.12053632768049441,0.11888880772392355,125.68785500246719
7.34,0.5354668479328023,0.21557210606188457,125.7553595569151
7.35,1.3522583458460933,0.33655384685437006,126.12569704312237
7.36,1.0092652238905726,0.03050067093818992,125.90161942488557
7.37,0.40471650797505415,-0.15574484858982,125.41877434793177
7.38,-0.08033924710549582,-0.10829652451107935,125.19469672969497
7.39,-0.05776957481543513,-0.016947653140550717,125.30626675718526
7.4,0.09082782960525639,0.03644766368178678,125.76661031598975
7.41,0.14376496850457146,0.07498826043213555,125.76661031598975
7.42,0.18714706366064918,0.08685672234532242,125.46377738423038
7.43,0.18061229236498685,0.09693853407802955,125.0934398980231
7.44,0.18950836757420786,0.06845422548638105,124.93686683423421
7.45,0.21032079044022486,0.09336523371707006,125.12719217524706
7.46,0.22932104983769688,0.08032268739956792,125.21719824784427
7.47,0.24837622327967027,0.1111806883738538,124.91436531608491
7.48,0.2786887758444233,0.1016859188433043,124.09493503014781
7.49,0.2774806668653933,0.11768919974560144,123.88210817098565
7.5,0.3071891649406313,0.10405961122594166,124.30776188930996
7.51,0.33695257706037074,0.14142612357197518,124.42026948005648
7.52,0.3874734980016258,0.15030832732636018,124.16243958459572
7.53,0.3934042148077731,0.16337639721786917,123.74709906208983
7.54,0.4920847527767246,0.20725142093565033,123.53427220292768
7.55,0.5135012301322566,0.2327749949425038,123.55677372107698
7.56,0.588953127277131,0.26182082216230307,124.274009612086
7.57,0.619869734331399,0.2938529075409042,126.17070007942097
7.58,0.6715987642516842,0.2968136421256992,130.78257373677178
7.59,0.6591332761498745,0.29209178093443133,137.54803019366213
7.6,0.6519944503646972,0.26123377996014546,146.1426725634395
7.61,0.5312933805506986,0.19716960920294319,153.98538920172768
7.62,0.44749454864161686,0.12838357725447305,159.73077683584964
7.63,0.3559528364578427,0.10286000324761956,162.56878081243042
7.64,0.301258448134484,0.05362502898839918,163.6910440301269
7.65,0.24184145198400792,0.044155783031856535,162.9841213349363
7.66,0.2317372677957569,0.023966635992435426,160.94210856288709
7.67,0.2079594865266662,0.023379593790277795,158.13691930027403
7.68,0.20971673595070986,0.005002620505343284,155.1639062147974
7.69,0.18775111815016418,0.0032159703248635396,152.51622757922948
7.7,0.2162515072463722,0.0032159703248635396,149.78979363013897
7.71,0.20850862697167985,0.007963355090138288,147.9831092354012
7.72,0.2400292885154629,0.007963355090138288,146.52426080872144
7.73,0.22756380041365323,0.0008422779422261651,144.67257337768507
7.74,0.2543069400858176,0.00025523574006853486,142.51899057814555
7.75,0.2406333430049779,-0.000944372238253579,140.97013607886856
7.76,0.26616837369811225,-0.000944372238253579,139.8703743793214
7.77,0.2537028855963026,0.0026289281227059092,138.88312027052075
7.78,0.2697377865907009,-0.000944372238253579,138.06368998458365
7.79,0.25606418950986126,0.009162963068460402,137.52552867551282
7.8,0.25134158168274395,-0.013399876353598081,136.4820207713389
7.81,0.2400292885154629,-0.011613226173118336,134.83284700364626
7.82,0.2435987014080516,-0.022282080107983094,132.42049674538978
7.83,0.22459844201057957,-0.015161002960070972,130.62506310972668
7.84,0.22756380041365323,-0.030577241660210478,129.5253014101795
7.85,0.21982092013896087,-0.01932134552318809,129.35747758731597
7.86,0.2311332133062419,-0.027029464873257844,130.1422180327729
7.87,0.2079594865266662,-0.029990199458052848,130.9166452824114
7.88,0.23409857170931558,-0.03177684963853259,130.97289907778463
7.89,0.21921686564944587,-0.02465577249062047,130.95039755963535
7.9,0.22932104983769688,-0.038897926786444714,131.56731418222873
7.91,0.2049392140790912,-0.03831088458428709,132.08391153640645
7.92,0.22871699534818188,-0.036524234403807344,132.74583119529845
7.93,0.22339033303154957,-0.028229072851579957,133.39650009511578
7.94,0.21328614884329855,-0.06084820043233871,134.18217810382893
7.95,0.21032079044022486,-0.049566780721309475,134.74284093104905
7.96,0.23409857170931558,-0.04364531155171946,134.72033941289976
7.97,0.1972512478489002,-0.061435242634496345,134.74284093104905
7.98,0.22520249650009458,-0.05314008108226896,134.88910079901953
7.99,0.21509831231184356,-0.05252751530610448,134.15967658567962
8.0,0.22635569143462322,-0.0596485924540166,132.76833271344773
8.01,0.21207803986426854,-0.0566878578692216,131.64606949575128
8.02,0.2317372677957569,-0.056100815667063965,130.86039148703813
8.03,0.2061473230581212,-0.0691433619845661,130.08690180065585
8.04,0.2762725578863633,-0.057274900071379226,129.3687283463906
8.05,0.2846194926505706,-0.05551377346490634,128.91963554666077
8.06,0.30603597000610266,-0.06498301942144898,128.14520829702226
8.07,0.332779109678267,-0.04364531155171946,126.95637808813412
8.08,0.3636957167325351,-0.0376983188081226,125.63160120709392
8.09,0.33393230461279566,-0.011613226173118336,125.1159414161724
8.1,0.311362632322735,-0.01932134552318809,125.31751751625991
8.11,0.2109248449297399,-0.06439597721929136,125.7553595569151
8.12,0.20850862697167985,-0.08871994324782273,125.99068793422656
8.13,0.1722653576007795,-0.08634625086518535,125.8453656295123
8.14,0.16929999919770583,-0.10117544736316722,125.53128193867829
8.15,0.16095306443349847,-0.0940543702152551,125.29501599811061
8.16,0.1722653576007795,-0.10117544736316722,125.28376523903596
8.17,0.15979986949896982,-0.09584102039573485,125.12719217524706
8.18,0.16809189021867582,-0.1035491397458046,124.70060089366653
8.19,0.15562640211686612,-0.09997583938484511,124.61059482106933
8.2,0.12234849114903944,-0.10709691653275724,124.83561000256235
8.21,0.1811614328100005,-0.06735671180408635,124.99218306635125
8.22,0.5925225401697197,0.05362502898839918,124.88061303886096
8.23,1.4407797855822924,0.19895625938342293,124.82435924348769
8.24,1.1120643151971263,-0.07922517371727322,125.12719217524706
8.25,0.4920847527767246,-0.33070894840680065,125.0259353435752
8.26,0.023063898690572963,-0.2654706932452831,124.74560392996514
8.27,0.028994615496720295,-0.17886920664002925,124.37526644375787
8.28,0.17105724862174948,-0.12904719017865124,124.06118275292386
8.29,0.19071647655323787,-0.11541760165899147,123.72459754394053
8.3,0.22399438752106457,-0.10296209754364696,124.08368427107315
8.31,0.22102902911799088,-0.09168067783261773,124.53277707080298
8.32,0.24656405981112525,-0.08693329306734297,124.2515080939367
8.33,0.24777216879015526,-0.07922517371727322,123.75834982116449
8.34,0.27511936295183465,-0.07685148133463585,123.28675550328535
8.35,0.2625989608055236,-0.07567739693032059,123.3205077805093
8.36,0.301258448134484,-0.0661826273997711,123.83710513468705
8.37,0.29472367683882167,-0.06084820043233871,123.870857411911
8.38,0.320862762021471,-0.06023563465617423,123.53427220292768
8.39,0.35177936907573903,-0.03177684963853259,123.06267788504854
8.4,0.40290434450650914,-0.009826575992638593,122.78234647143849
8.41,0.4082859208676428,0.0014293201443837953,122.96142105337668
8.42,0.4546333744267942,0.02041885920548279,123.41051385310651
8.43,0.49686227464834326,0.047703559818809166,123.3205077805093
8.44,0.568140704411114,0.08981745693011742,123.1639347167204
8.45,0.601473529423442,0.11827624194775906,124.98093230727659
8.46,0.6519944503646972,0.13846538898718017,130.42348700963916
8.47,0.6448556245795197,0.1337180042219054,137.62678550718468
8.48,0.6614945800634331,0.12600988487183568,146.16517408158882
8.49,0.561056792670438,0.06253275631679105,153.49223092895548
8.5,0.48615403597057727,0.01983181700332516,159.3041855542691
8.51,0.36127949877447507,-0.04244570357339735,161.32369680816902
8.52,0.31850145810791236,-0.06735671180408635,161.8515449214214
8.53,0.2400292885154629,-0.09525397819357721,161.43620439891552
8.54,0.21685556173588721,-0.11421799368066936,159.37169010871702
8.55,0.1811614328100005,-0.11896537844594411,156.6452561596265
8.56,0.19604313886987018,-0.12075202862642385,153.8288161379388
8.57,0.16573058630511714,-0.13024679815697335,151.393964361533
8.58,0.19543908438035518,-0.12133907082858147,148.7350349668904
8.59,0.1740775210693245,-0.13024679815697335,146.56926384502003
8.6,0.1978553023384152,-0.12787310577433597,144.5047495548215
8.61,0.19247372597728152,-0.12787310577433597,143.0796534053657
8.62,0.22042497462847588,-0.11541760165899147,141.7333125694324
8.63,0.20021660625197388,-0.12133907082858147,140.4207240107231
8.64,0.22042497462847588,-0.11125725909587435,139.0293801384912
8.65,0.19840444278342884,-0.11837833624378648,137.82836160727217
8.66,0.2073554320371512,-0.12075202862642385,136.70609838957571
8.67,0.19307778046679652,-0.11480503588282699,136.05542948975838
8.68,0.20021660625197388,-0.11480503588282699,135.3035037582692
8.69,0.16929999919770583,-0.12075202862642385,133.9571629223359
8.7,0.19071647655323787,-0.10709691653275724,132.1851683680783
8.71,0.1579877060304248,-0.12075202862642385,130.93914680056068
8.72,0.1817654872995155,-0.10888356671323698,130.29972865981802
8.73,0.15623045660638113,-0.11480503588282699,130.4572392868631
8.74,0.18473084570258916,-0.09880175498052986,130.89414376426208
8.75,0.16040392398848483,-0.10176248956532485,131.10790818668045
8.76,0.16990405368722084,-0.10829652451107935,131.04040363223254
8.77,0.14376496850457146,-0.1130439092763541,131.06290515038185
8.78,0.1639733368810735,-0.10709691653275724,131.56731418222873
8.79,0.1401955556119828,-0.11480503588282699,132.15141609085435
8.8,0.1484875763316888,-0.11480503588282699,132.8470880269703
8.81,0.14612627241813014,-0.10296209754364696,133.59807619520328
8.82,0.1484875763316888,-0.11243134350018961,134.67533637660114
8.83,0.13838339214343778,-0.10650987433059961,135.3035037582692
8.84,0.15979986949896982,-0.10234953176748249,134.94535459439277
8.85,0.1395915011224678,-0.10472322415011986,134.5525155900362
8.86,0.15441829313783612,-0.0970151048000501,134.28249737224456
8.87,0.13009137142373178,-0.10650987433059961,133.85684365392027
8.88,0.15326509820330747,-0.09938879718268748,133.20617475410293
8.89,0.12591790404162811,-0.1100831746915591,132.3417414318672
8.9,0.1484875763316888,-0.1035491397458046,131.35448732306656
8.91,0.12114038217000941,-0.1160046438611491,130.4572392868631
8.92,0.16990405368722084,-0.07981221591943086,129.40248062361457
8.93,0.17880012889644184,-0.07922517371727322,128.72931020564792
8.94,0.22163308360750592,-0.07330370454768322,128.20146209239553
8.95,0.20850862697167985,-0.08514664288686323,127.22545874266953
8.96,0.282862243226527,-0.05490120768874185,126.0694432477491
8.97,0.2412373974944929,-0.07269113877151873,125.58753573405154
8.98,0.28044602526846696,-0.03593719220164971,125.85661638858696
8.99,0.22278627854203456,-0.043058269349561834,125.9794371751519
9.0,0.1811614328100005,-0.051940473103946845,126.14819856127167
9.01,0.12767515346567176,-0.09226772003477536,126.28320767016749
9.02,0.1443141089495851,-0.07922517371727322,125.89036866581091
9.03,0.0920359385842864,-0.09997583938484511,125.27345204321753
9.04,0.12114038217000941,-0.08634625086518535,124.67809937551723
9.05,0.10214012277253741,-0.09050659342830247,124.83561000256235
9.06,0.10927894855771475,-0.09168067783261773,125.49752966145434
9.07,0.10274417726205241,-0.08575920866302772,125.8003625932137
9.08,0.11696691478790575,-0.08338551628039034,125.61003725220085
9.09,0.06886221180471071,-0.10234953176748249,125.26220128414288
9.1,0.09560535147687507,-0.06380893501713372,124.95843078912729
9.11,0.31317479579128005,0.008550397292295918,124.88061303886096
9.12,0.9557240305017425,0.2001303437877382,125.03718610264986
9.13,1.3498421278880333,0.2535256606100757,124.88061303886096
9.14,0.6627026890424631,-0.3176664020892985,124.38651720283252
9.15,0.11817502376693576,-0.28029988974326503,124.26275885301135
9.16,-0.011422121256283753,-0.16107927555725235,124.52152631172834
9.17,0.04327226706707499,-0.12192611303073911,124.70060089366653
9.18,0.1484875763316888,-0.07626443913247823,124.46527251635507
9.19,0.1502997398002338,-0.0626093270388116,124.20744262089431
9.2,0.19543908438035518,-0.036524234403807344,124.15118882552106
9.21,0.1829735962785455,-0.04068457696692446,123.959925921252
9.22,0.22339033303154957,-0.01990838772534572,123.67959450764192
9.23,0.19483502989084017,-0.03415054202116997,123.78085133931378
9.24,0.23228640824077057,-0.021107995703667833,123.870857411911
9.25,0.22102902911799088,-0.022869122310140724,123.64584223041797
9.26,0.272758059038276,0.0044155783031856535,123.79210209838844
9.27,0.24837622327967027,-0.009826575992638593,123.94867516217734
9.28,0.3155360997048387,0.03762174808610204,123.70209602579123
9.29,0.31196668681225,0.03703470588394441,123.36551081680791
9.3,0.36127949877447507,0.05541167916887892,123.0739286441232
9.31,0.3708345425177124,0.06431940649727079,123.24175246698674
9.32,0.47066827542119255,0.1295576616587883,123.85960665283635
9.33,0.48077245960944354,0.14083908136981754,124.00492895755059
9.34,0.559848683691408,0.18828740544855818,124.46527251635507
9.35,0.5657794004975554,0.1947959168203058,126.19320159757028
9.36,0.6264045056270614,0.2232802254119543,131.44449339566378
9.37,0.590161236256161,0.1947959168203058,138.44527822986555
9.38,0.5782998026438664,0.17759302793968657,146.70333539065962
9.39,0.4409597773459545,0.09277819151491243,152.95313205662842
9.4,0.3886266929361544,0.06549349090158604,158.07035230908235
9.41,0.2625989608055236,0.0032159703248635396,160.63927563112773
9.42,0.23585582113335923,-0.0039051068230485835,161.04336539455895
9.43,0.15979986949896982,-0.038897926786444714,159.87609914056387
9.44,0.16693869528414715,-0.03831088458428709,157.42999660508343
9.45,0.1253138495521131,-0.056100815667063965,154.45698351960684
9.46,0.16633464079463214,-0.029990199458052848,151.31520904801044
9.47,0.12350168608356808,-0.0566878578692216,148.46501674909877
9.48,0.16809189021867582,-0.029403157255895217,145.8735919089041
9.49,0.13064051186874542,-0.0566878578692216,144.24691965936074
9.5,0.18473084570258916,-0.02406873028846284,142.7318174373077
9.51,0.16276522790204348,-0.03532462642548523,141.8008171238803
9.52,0.19011242206372286,-0.021695037905825464,140.56604631543732
9.53,0.16754274977366218,-0.03118980743637496,139.62379524293527
9.54,0.2014247152310039,-0.013986918555755712,138.1874483344048
9.55,0.15683451109589616,-0.03593719220164971,136.3920146987417
9.56,0.21032079044022486,0.0014293201443837953,134.462509517439
9.57,0.15683451109589616,-0.025855380468942583,132.94740729538594
9.58,0.19071647655323787,0.0014293201443837953,132.0051562228839
9.59,0.1490916308212038,-0.02406873028846284,131.85889635491344
9.6,0.16869594470819083,-0.015161002960070972,131.49980962778082
9.61,0.13009137142373178,-0.030577241660210478,130.60256159157737
9.62,0.17764693396191317,-0.0003318064620890953,129.35747758731597
9.63,0.13184862084777543,-0.028816115053737587,128.5492980604535
9.64,0.16869594470819083,-0.009826575992638593,127.90987991971082
9.65,0.13064051186874542,-0.029403157255895217,127.48328863813029
9.66,0.17704287947239816,-0.0015314144404112093,127.94363219693477
9.67,0.13777933765392278,-0.02406873028846284,129.985644968984
9.68,0.17704287947239816,-0.0003318064620890953,131.84764559583877
9.69,0.14195280503602645,-0.028229072851579957,132.26298611834466
9.7,0.1734734665798095,-0.006865841407843588,132.42049674538978
9.71,0.1389874466329528,-0.03118980743637496,132.4880012998377
9.72,0.17764693396191317,-0.006278799205685958,132.24048460019534
9.73,0.14376496850457146,-0.029403157255895217,132.09516229548112
9.74,0.17819607440692684,-0.013986918555755712,132.62207284547728
9.75,0.15683451109589616,-0.030577241660210478,132.66707588177587
9.76,0.1918696714877665,-0.0056662334295214745,132.1401653317797
9.77,0.15386915269282248,-0.03415054202116997,131.69107253204987
9.78,0.2073554320371512,-0.0032925410468841,131.30948428676797
9.79,0.16573058630511714,-0.03593719220164971,131.1416604639044
9.8,0.23289046273028557,-0.0032925410468841,129.92939117361072
9.81,0.2400292885154629,-0.01873430332103046,128.21271285147017
9.82,0.301258448134484,0.0038030125270211695,127.06794811562442
9.83,0.292362372925263,-0.02049542992750335,126.50728528840429
9.84,0.331571000699237,0.005589662707500914,126.34977466135918
9.85,0.321466816510986,0.013297782057570666,126.31695994739144
9.86,0.332175055188752,0.03407397129914941,126.04694172959981
9.87,0.22102902911799088,-0.014573960757913342,125.56503421590224
9.88,0.22575163694510822,-0.03118980743637496,125.10469065709776
9.89,0.16754274977366218,-0.06322189281497609,125.01468458450054
9.9,0.2055432685686062,-0.03177684963853259,124.67809937551723
9.91,0.15979986949896982,-0.07034296996288822,124.34151416653391
9.92,0.20971673595070986,-0.040072011190759975,124.53277707080298
9.93,0.15084888024524745,-0.08514664288686323,125.0259353435752
9.94,0.20197385567601753,-0.06023563465617423,125.45252662515573
9.95,0.17523071600385315,-0.08575920866302772,125.16094445247101
9.96,0.21982092013896087,-0.045406438158192355,124.76810544811444
9.97,0.13124456635826043,-0.07626443913247823,124.68935013459188
9.98,0.41421663767379013,0.03407397129914941,124.35276492560857
9.99,0.9307930542981232,0.16633713180266418,123.92617364402804
