time_s,ECG,NIBP
0.0,-0.30472089055500334,113.82945292502282
0.01,-0.2989136935678619,112.09024070110502
0.02,-0.2915762216989737,109.31298940774334
0.03,-0.2832185665755877,106.93221794127045
0.04,-0.27282054494320607,105.13149930029353
0.05,-0.26289337712059263,103.69792665653102
0.06,-0.25453572199720664,102.78195416863525
0.07,-0.2477868173905287,102.41575442399098
0.08,-0.24201885822086797,101.98804826228758
0.09,-0.2435491331026147,102.01927459710221
0.1,-0.2477868173905287,101.53100827090982
0.11,-0.2473552013982412,101.13358219145091
0.12,-0.25100431842394494,101.13358219145091
0.13,-0.25178907477355866,101.16480852626555
0.14,-0.24872852501006518,99.5467166313257
0.15,-0.24766910393808667,98.78403705979265
0.16,-0.25284849584553715,98.35727715065939
0.17,-0.25877340628512063,97.65515774361532
0.18,-0.2561837103313954,97.19717149966743
0.19,-0.2615200535087686,96.37298551107526
0.2,-0.2676411530357556,96.73918525571955
0.21,-0.25787093648306486,96.86125183726763
0.22,-0.22306699237769687,96.80069167277865
0.23,-0.18692896247798557,96.49505209262335
0.24,-0.17943453933917464,96.31242534658628
0.25,-0.1884592373597323,96.83097175502314
0.26,-0.21376762963477441,96.77041159053417
0.27,-0.23695717976585953,96.80069167277865
0.28,-0.233778916549924,96.64834500898608
0.29,-0.22887418936483833,96.80069167277865
0.3,-0.24963099481212095,96.77041159053417
0.31,-0.27525328962700857,96.09857226573459
0.32,0.07294310269659428,95.21382611265344
0.33,1.072094887024769,95.15231969559433
0.34,1.366260804677468,94.26757354251318
0.35,0.3358364798171869,93.44338755392101
0.36,-0.37217069880430165,92.68070798238796
0.37,-0.3401134019225816,92.00886865758838
0.38,-0.27497862490464375,91.09384242226274
0.39,-0.2557520943391079,90.75792275986295
0.4,-0.24307827929284645,89.93373677127077
0.41,-0.23742803357562775,89.53725694438201
0.42,-0.2319347391283318,89.14077711749324
0.43,-0.22965894571445203,88.80485745509344
0.44,-0.2238517487273106,88.25603096441209
0.45,-0.21835845428001463,87.88983121976781
0.46,-0.21043241514891617,87.9201113020123
0.47,-0.20509607197154292,87.52363147512354
0.48,-0.19834716736486502,87.4924051403089
0.49,-0.18449621779418307,87.09592531342014
0.5,-0.16648605957054843,86.69944548653136
0.51,-0.14937837114896957,86.79123198583497
0.52,-0.12862156570168695,86.63793906947225
0.53,-0.10131204473512988,86.42408598862055
0.54,-0.07051035801279178,85.84497941569471
0.55,-0.028094277316170795,85.90553958018369
0.56,0.019226530565535877,85.84497941569471
0.57,0.06227041634184784,87.06564523117565
0.58,0.09428847540608717,87.00413881411653
0.59,0.11720336081480749,87.12620539566463
0.6,0.12344217379423647,87.06564523117565
0.61,0.09138487691251646,91.36825566760342
0.62,0.02640705116450132,99.11995672219244
0.63,-0.05218629724931167,107.5728309312554
0.64,-0.11351500597162305,114.74447916034845
0.65,-0.15640194047801226,115.14190523980736
0.66,-0.1841823152543376,119.13982234864997
0.67,-0.20415436435200648,119.04803584934636
0.68,-0.22032034515404889,118.59004960539848
0.69,-0.22718696321316884,117.91915653316903
0.7,-0.23103226932627602,116.72877079993258
0.71,-0.2316208365884863,115.20246540429633
0.72,-0.2262844934111131,114.98861232344464
0.73,-0.21788760047024638,115.11067890499272
0.74,-0.21070707987128096,115.01983865825926
0.75,-0.2046252181617747,115.23274548654082
0.76,-0.18936170716178807,113.8900130895118
0.77,-0.17653094084560392,113.85973300726731
0.78,-0.16479883341887896,111.54046795785352
0.79,-0.15914858770166024,110.74750830407598
0.8,-0.1589916364317375,109.15969649138061
0.81,-0.15777526408983625,108.79349674673634
0.82,-0.1582461178996045,108.3364567553586
0.83,-0.160678862583407,107.93903067589969
0.84,-0.15989410623379327,106.74959119523338
0.85,-0.16126742984561726,105.52892537975244
0.86,-0.16585825449085748,104.33853964651598
0.87,-0.16554435195101197,103.23994041258314
0.88,-0.16189523492530825,102.41575442399098
0.89,-0.1603649600435615,102.355194259502
0.9,-0.160678862583407,102.355194259502
0.91,-0.16664301084047117,102.355194259502
0.92,-0.17135154893815344,102.26340776019839
0.93,-0.16801633445229516,101.56128835315432
0.94,-0.1312112616554122,101.16480852626555
0.95,-0.08667633881483419,101.22536869075452
0.96,-0.07812249460404476,100.98123552765834
0.97,-0.08545996647293294,101.10330210920642
0.98,-0.10299927088679935,101.01151560990283
0.99,-0.13030879185335642,101.16480852626555
1.0,-0.13992205713612438,101.13358219145091
1.01,-0.13733236118239914,100.73710236456215
1.02,-0.1396081545962789,100.64531586525854
1.03,-0.1817495705705351,99.9441427107846
1.04,0.014361041197930881,99.08967663994795
1.05,0.9749028131251111,98.41783731514836
1.06,1.6540701958982957,97.5936513265562
1.07,0.7893471742589495,96.43449192813438
1.08,-0.19822945391242297,95.54974577505324
1.09,-0.278941644470193,94.81734628576467
1.1,-0.18692896247798557,93.87109371562441
1.11,-0.1835545101746466,93.4736676361655
1.12,-0.18049396041115315,93.10746789152121
1.13,-0.17350962889959112,92.37506840223266
1.14,-0.16158133238546274,91.9180284108549
1.15,-0.1576183128199135,91.97858857534389
1.16,-0.15122254857056178,91.58210874845511
1.17,-0.14725952900501255,91.15440258675171
1.18,-0.14741648027493529,90.72764267761846
1.19,-0.14451288178136457,90.72764267761846
1.2,-0.13168211546518044,90.33116285072968
1.21,-0.11704640954488475,89.84289652453731
1.22,-0.10727619299219407,89.90345668902629
1.23,-0.0971920738996579,89.9649631060854
1.24,-0.08102609309761549,89.47669677989303
1.25,-0.05583541427501542,89.14077711749324
1.26,-0.02424897120306362,89.07927070043412
1.27,0.013262382308471687,89.20133728198222
1.28,0.06211346507192509,88.95720411888603
1.29,0.10939503513615108,91.06356234001825
1.3,0.14922141987904683,90.94149575847015
1.31,0.1754715197736254,91.06356234001825
1.32,0.18386841271449209,91.03233600520362
1.33,0.159305538971583,96.55655850968247
1.34,0.09703512262973515,104.67445930891579
1.35,0.019540433105381363,112.66934727403086
1.36,-0.04896879621589546,118.3156363600578
1.37,-0.09428847540608717,118.62032968764296
1.38,-0.12375607633408196,120.0548485839756
1.39,-0.14298260689961784,120.2384215825828
1.4,-0.15302748817467332,119.8107154208794
1.41,-0.15593108666824404,118.98652943228724
1.42,-0.15624498920808952,118.68183610470207
1.43,-0.162797704727364,117.979716697658
1.44,-0.1692327067941964,117.15553070906583
1.45,-0.16707462683275873,116.69754446511794
1.46,-0.1589916364317375,116.20927813892557
1.47,-0.15165416456284933,116.39285113753279
1.48,-0.14557230285334308,115.44659856739253
1.49,-0.13976510586620164,115.14190523980736
1.5,-0.1290924195114552,114.98861232344464
1.51,-0.121754947642567,115.17218532205185
1.52,-0.11457442704360156,114.62241257880035
1.53,-0.10817866279424983,114.68391899585947
1.54,-0.10131204473512988,114.25621283415607
1.55,-0.09946786731353766,113.46325318037853
1.56,-0.0996248185834604,112.30314752938658
1.57,-0.10390174068885512,111.17426821320925
1.58,-0.10543201557060185,109.19092282619525
1.59,-0.09946786731353766,107.60405726607003
1.6,-0.0982514949716364,106.261324869041
1.61,-0.09491628048577815,106.32188503352998
1.62,-0.0939745728662417,106.23009853422637
1.63,-0.0947593292158554,106.261324869041
1.64,-0.09628960409760214,105.4976990449378
1.65,-0.09428847540608717,105.16272563510816
1.66,-0.09169877945236193,104.73501947340476
1.67,-0.09063935838038342,104.39909981100496
1.68,-0.08726490607704447,104.2164730649679
1.69,-0.08699024135467968,104.43032614581959
1.7,-0.08451825885339649,104.33853964651598
1.71,-0.08392969159118621,104.43032614581959
1.72,-0.08408664286110895,104.36881972876047
1.73,-0.08086914182769274,104.43032614581959
1.74,-0.07843639714389025,104.73501947340476
1.75,-0.07812249460404476,104.43032614581959
1.76,-0.07859334841381299,104.33853964651598
1.77,-0.08377274032126347,103.9723399018717
1.78,-0.09444542667600991,101.59156843539881
1.79,-0.09644655536752487,100.52324928371046
1.8,-0.06117175745238864,99.42465004977761
1.81,-0.009299362742922455,98.78403705979265
1.82,0.005336343177373223,98.08191765274857
1.83,-0.004433873375317457,96.83097175502314
1.84,-0.01298771758610689,96.1903587650382
1.85,-0.037707542598938736,95.97650568418649
1.86,-0.05540379828272788,95.48823935799412
1.87,-0.05202934597938893,95.24410619489792
1.88,-0.05171544343954344,94.75583986870555
1.89,-0.09919320259117285,94.29785362475766
1.9,-0.05446209066319143,93.9013737978689
1.91,0.6954903148451499,93.62696055252822
1.92,1.7616210536128547,93.13869422633584
1.93,1.3656722374152577,93.16897430858033
1.94,0.12709129081994022,92.55864140083986
1.95,-0.2157687583262894,92.31450823774368
1.96,-0.10193984981482083,92.25300182068456
1.97,-0.08852051623642641,91.9180284108549
1.98,-0.09444542667600991,91.4903222491515
1.99,-0.09385685941379963,91.21590900381084
2.0,-0.08408664286110895,91.18562892156635
2.01,-0.07875029968373573,90.75792275986295
2.02,-0.07616060373001049,90.29993651591506
2.03,-0.07368862122872731,90.33116285072968
2.04,-0.06956865039325533,89.93373677127077
2.05,-0.06517401483541856,90.02552327057438
2.06,-0.0607401414601011,89.53725694438201
2.07,-0.051126876177333164,89.17105719973773
2.08,-0.04057190327502877,88.65251079130087
2.09,-0.02656400243442406,88.74429729060446
2.1,-0.010358783814900963,88.25603096441209
2.11,0.011143540164514673,87.7980447204642
2.12,0.03602031644726926,87.88983121976781
2.13,0.06913703440096779,87.9201113020123
2.14,0.10896341914386354,88.22480462959747
2.15,0.15502861686618827,90.78820284210744
2.16,0.19944582625432422,90.75792275986295
2.17,0.23895830845737448,97.34951816346002
2.18,0.2652084083519531,105.58948554424141
2.19,0.27282054494320607,113.61559984417111
2.2,0.2421758094907907,119.13982234864997
2.21,0.17378429362195594,121.36730089876013
2.22,0.10131204473512988,121.36730089876013
2.23,0.040297238552663976,121.48936748030823
2.24,-0.0036491170257037485,121.39758098100462
2.25,-0.035863365177346514,121.51964756255272
2.26,-0.05418742594082663,121.06166131860483
2.27,-0.06576258209762884,120.57339499241246
2.28,-0.06929398567089054,120.2384215825828
2.29,-0.06941169912333259,119.41423559399064
2.3,-0.07003950420302356,118.2853562778133
2.31,-0.07310005396651702,117.79708995162093
2.32,-0.07521889611047404,117.39966387216202
2.33,-0.07737697607191174,117.15553070906583
2.34,-0.07737697607191174,116.69754446511794
2.35,-0.07156977908477029,116.66726438287346
2.36,-0.06666505189968461,116.27078455598469
2.37,-0.059680720388122596,116.39285113753279
2.38,-0.05355962086113566,116.27078455598469
2.39,-0.043475501768599496,116.3625710552883
2.4,-0.036922786249325025,116.20927813892557
2.41,-0.03248891287400757,115.50810498445163
2.42,-0.02778037477632531,115.01983865825926
2.43,-0.02562229481488761,113.9515195065709
2.44,-0.028094277316170795,112.27286744714209
2.45,-0.02683866715678886,110.77778838632047
2.46,-0.028094277316170795,109.5258962360249
2.47,-0.028839795848303817,108.0005370929588
2.48,-0.028525893308458335,107.08456460506302
2.49,-0.02424897120306362,107.08456460506302
2.5,-0.018324060763480112,106.62752461368528
2.51,-0.01573436480975487,106.23009853422637
2.52,-0.016636834611810637,105.9254052066412
2.53,-0.017853206953711887,105.95568528888569
2.54,-0.01722540187402092,105.95568528888569
2.55,-0.01573436480975487,105.9254052066412
2.56,-0.01573436480975487,105.89512512439671
2.57,-0.014478754650372938,106.01719170594481
2.58,-0.01573436480975487,105.89512512439671
2.59,-0.014478754650372938,105.95568528888569
2.6,-0.013890187388162655,105.52892537975244
2.61,-0.01082963762466919,105.22328579959714
2.62,-0.008985460203076973,104.36881972876047
2.63,-0.008239941670943949,104.06412640117532
2.64,-0.006866618059119957,103.14815391327954
2.65,-0.0034921657557810066,102.355194259502
2.66,-0.0025896959537252406,101.56128835315432
2.67,-0.00337445230333895,100.37090261991787
2.68,-0.0034921657557810066,99.39436996753312
2.69,0.0030605497634934664,98.81431714203714
2.7,0.005179391907450481,97.99107740601511
2.71,0.006121099526986933,97.65515774361532
2.72,0.005022440637527739,97.16689141742295
2.73,0.004433873375317457,97.07510491811934
2.74,0.004747775915162941,96.73918525571955
2.75,0.004865489367604997,96.49505209262335
2.76,0.004433873375317457,95.97650568418649
2.77,0.007769087861175722,95.5185194402386
2.78,0.0027466472236479826,95.12203961334984
2.79,0.0030605497634934664,94.72555978646106
2.8,0.009770216552690681,94.69527970421657
2.81,0.012046009966570438,94.26757354251318
2.82,0.013890187388162655,93.80958729856529
2.83,0.01557741353983213,93.99316029717251
2.84,0.014204089928008139,93.53517405322462
2.85,0.01573436480975487,93.10746789152121
2.86,0.009927167822613422,92.68070798238796
2.87,-0.0003139025398454837,92.34478831998817
2.88,0.004865489367604997,92.37506840223266
2.89,0.04057190327502877,91.97858857534389
2.9,0.08028057456548246,91.4903222491515
2.91,0.08667633881483419,91.24618908605532
2.92,0.07812249460404476,91.09384242226274
2.93,0.06438925848580485,90.84970925916656
2.94,0.03633421898711474,90.26965643367058
2.95,0.028525893308458335,89.9649631060854
2.96,0.03798220732130353,89.93373677127077
2.97,0.026720953704346802,89.53725694438201
2.98,-0.024092019933140876,89.01871053594515
2.99,0.27129027006145934,88.80485745509344
3.0,1.3711655318625535,88.19452454735298
3.01,1.914530828335086,88.37809754596019
3.02,0.8520492065930849,87.82832480270869
3.03,-0.06301593487398086,87.88983121976781
3.04,-0.06058319019017836,87.46212505806442
3.05,0.011889058696647697,87.15743173047925
3.06,-0.005179391907450481,86.63793906947225
3.07,-0.014204089928008139,86.63793906947225
3.08,-0.006238812979428989,86.30201940707245
3.09,-0.0007455185321330239,85.93581966242817
3.1,0.0007455185321330239,85.93581966242817
3.11,0.004119970835471974,85.50905975329492
3.12,0.005964148257064191,85.41727325399131
3.13,0.007612136591252981,85.17314009089512
3.14,0.007769087861175722,84.68487376470274
3.15,0.006709666789197215,84.71515384694723
3.16,0.014792657190218422,84.25811385556949
3.17,0.020129000367591646,84.44074060160656
3.18,0.03037007073005055,83.92219419316969
3.19,0.04531967919019171,84.0139806924733
3.2,0.06438925848580485,83.4642079492218
3.21,0.08757880861688996,83.43392786697731
3.22,0.12116638038035672,83.40364778473283
3.23,0.15730441028006803,83.52571436628092
3.24,0.19422719652939305,84.31867402005847
3.25,0.23330806274015578,90.23937635142609
3.26,0.2737622525627425,98.78403705979265
3.27,0.29601009507429116,108.4585233369067
3.28,0.3018172920614326,115.63017156599973
3.29,0.2792163091925578,120.11635500103472
3.3,0.22416565126715607,120.1769151655237
3.31,0.1557741353983213,120.20719524776818
3.32,0.0993501538610956,120.97082107187137
3.33,0.05355962086113566,120.69546157396056
3.34,0.020913756717205353,120.1769151655237
3.35,0.0018441774215922169,119.84099550312389
3.36,-0.005807196987141449,119.71892892157581
3.37,-0.008239941670943949,117.12525062682134
3.38,-0.010358783814900963,116.27078455598469
3.39,-0.015420462269909388,115.14190523980736
3.4,-0.01573436480975487,114.65363891361498
3.41,-0.01816710949355737,113.85973300726731
3.42,-0.017853206953711887,113.43297309813404
3.43,-0.014047138658085398,113.5238133448675
3.44,-0.009142411472999714,113.49353326262302
3.45,-0.0038060682956264904,113.49353326262302
3.46,0.0018441774215922169,113.31090651658594
3.47,0.008239941670943949,113.03554701867513
3.48,0.017382353143943662,113.03554701867513
3.49,0.021070707987128096,113.06677335348976
3.5,0.02381735521077608,112.2123072826531
3.51,0.025347630092522812,111.63225445715713
3.52,0.023660403940853336,109.8315358161802
3.53,0.021070707987128096,108.82472308155097
3.54,0.022875647591239626,108.76321666449185
3.55,0.022444031598952086,108.79349674673634
3.56,0.022718696321316886,108.67143016518824
3.57,0.02197317778918386,108.73293658224736
3.58,0.023346501401007854,107.45076434970731
3.59,0.02303259886116237,106.29160495128549
3.6,0.024092019933140876,105.4976990449378
3.61,0.025465343544964866,104.82680597270836
3.62,0.025465343544964866,104.70473939116027
3.63,0.02397430648069882,104.73501947340476
3.64,0.021502323979415636,104.70473939116027
3.65,0.01938348183545862,104.79652589046387
3.66,0.018912628025690395,103.9723399018717
3.67,0.020129000367591646,103.72820673877551
3.68,0.021502323979415636,103.23994041258314
3.69,0.021070707987128096,102.87374066793886
3.7,0.022444031598952086,102.32396792468737
3.71,0.020913756717205353,102.44603450623546
3.72,0.02197317778918386,102.2331276779539
3.73,0.02122765925705084,102.38547434174649
3.74,0.022444031598952086,101.4997819360952
3.75,0.022130129059106603,100.76738244680664
3.76,0.023503452670930593,99.9441427107846
3.77,0.022444031598952086,99.97442279302909
3.78,0.02318955013108511,97.22745158191192
3.79,0.021816226519261118,96.40421184588989
3.8,0.02424897120306362,95.5185194402386
3.81,0.021070707987128096,95.30561261195705
3.82,0.020129000367591646,94.69527970421657
3.83,0.019226530565535877,93.96193396235788
3.84,0.01816710949355737,93.74902713407631
3.85,0.01816710949355737,93.50489397098013
3.86,0.02122765925705084,93.41310747167653
3.87,0.022444031598952086,93.56545413546911
3.88,0.014792657190218422,92.68070798238796
3.89,0.010358783814900963,92.49713498378075
3.9,0.030958637992260833,91.8565219937958
3.91,0.07035340674286904,92.040094992403
3.92,0.08895213222871395,91.52060233139599
3.93,0.08467521012331923,91.27646916829981
3.94,0.07141282781484755,91.18562892156635
3.95,0.04500577665034623,90.72764267761846
3.96,0.029310649658072042,90.29993651591506
3.97,0.034490041565522524,90.33116285072968
3.98,0.03660888370947954,89.50697686213752
3.99,-0.007769087861175722,89.23256361679684
4.0,0.08012362329555972,89.04899061818963
4.01,0.9033330340403408,88.80485745509344
4.02,1.8484543436976115,88.19452454735298
4.03,1.2657335162919519,88.22480462959747
4.04,0.11092531001789781,87.76776463821972
4.05,-0.09644655536752487,87.43184497581993
4.06,0.01859872548584491,86.97385873187204
4.07,0.01341933357839443,87.03536514893116
4.08,0.0013733236118239913,87.00413881411653
4.09,0.0036491170257037485,86.42408598862055
4.1,0.008710795480712174,86.30201940707245
4.11,0.010515735084823705,85.93581966242817
4.12,0.009927167822613422,85.4475533362358
4.13,0.011732107426724954,85.53933983553941
4.14,0.011889058696647697,85.02079342710253
4.15,0.01298771758610689,85.26492659019873
4.16,0.01679378588173338,84.71515384694723
4.17,0.023503452670930593,84.44074060160656
4.18,0.03142949180202906,84.31867402005847
4.19,0.04331855049867676,83.98275435765868
4.2,0.05662017062462913,83.8001276116216
4.21,0.07643526845237529,83.55599444852541
4.22,0.0993501538610956,83.4642079492218
4.23,0.12618882101788445,83.06772812233304
4.24,0.160678862583407,83.09800820457752
4.25,0.2032518945499507,83.12828828682201
4.26,0.2442946516347477,83.8919141109252
4.27,0.2770974670486008,84.22688752075486
4.28,0.2990706448377846,97.25867791672654
4.29,0.30899781266039805,106.47423169732255
4.3,0.29283183185835565,113.55503967968214
4.31,0.23927221099722,117.7658636168063
4.32,0.16829099917465998,117.73558353456181
4.33,0.10590286938037008,117.979716697658
4.34,0.056463219354706384,118.92596926779827
4.35,0.02381735521077608,119.07831593159085
4.36,0.0027466472236479826,118.55976952315399
4.37,-0.009456314012845198,118.68183610470207
4.38,-0.01801015822363463,116.33134472047367
4.39,-0.02318955013108511,115.23274548654082
4.4,-0.024876776282754587,113.82945292502282
4.41,-0.02075680544728261,112.76113377333446
4.42,-0.017382353143943662,111.44868145854991
4.43,-0.014792657190218422,111.14398813096476
4.44,-0.007926039131098465,110.71628196926136
4.45,0.0012163723419012494,110.41158864167619
4.46,0.01082963762466919,109.89304223323933
4.47,0.017107688421578865,110.01510881478742
4.48,0.01938348183545862,109.9536023977283
4.49,0.024719825012831844,109.92332231548382
4.5,0.029899216920282325,109.89304223323933
4.51,0.03343062049354402,109.49561615378042
4.52,0.03264586414393031,109.12941640913613
4.53,0.03370528521590881,108.27495033829948
4.54,0.0340191877557543,107.14607102212214
4.55,0.03280281541385305,105.65099196130053
4.56,0.029899216920282325,104.33853964651598
4.57,0.028368942038535593,104.36881972876047
4.58,0.02778037477632531,104.36881972876047
4.59,0.02778037477632531,104.33853964651598
4.6,0.02640705116450132,104.33853964651598
4.61,0.02424897120306362,103.57586007498294
4.62,0.02440592247298636,102.72139400414628
4.63,0.024719825012831844,102.41575442399098
4.64,0.025779246084810352,101.9274880977986
4.65,0.027466472236479827,102.0495546793467
4.66,0.026720953704346802,101.9274880977986
4.67,0.02899674711822656,101.46950185385072
4.68,0.028839795848303817,101.4997819360952
4.69,0.028094277316170795,101.10330210920642
4.7,0.027152569696634342,100.73710236456215
4.71,0.026720953704346802,100.37090261991787
4.72,0.028368942038535593,100.27911612061426
4.73,0.030213119460127807,100.40118270216236
4.74,0.03037007073005055,99.5467166313257
4.75,0.02899674711822656,98.75375697754816
4.76,0.028368942038535593,98.08191765274857
4.77,0.028094277316170795,97.22745158191192
4.78,0.03037007073005055,95.946225601942
4.79,0.03127254053210632,95.27438627714241
4.8,0.029467600927994785,94.75583986870555
4.81,0.030958637992260833,93.99316029717251
4.82,0.03417613902567704,93.44338755392101
4.83,0.03539251136757829,92.74126814687693
4.84,0.038453061131071754,92.34478831998817
4.85,0.038453061131071754,92.040094992403
4.86,0.03998333601281849,91.52060233139599
4.87,0.041042757084796995,91.52060233139599
4.88,0.04241608069662099,90.63585617831485
4.89,0.03998333601281849,90.66613626055934
4.9,0.0315864430719518,90.23937635142609
4.91,0.02821199076861285,89.9952431883299
4.92,0.0561493168148609,89.47669677989303
4.93,0.09672122008988968,89.59876336144113
4.94,0.11139616382766604,89.11049703524876
4.95,0.10574591811044733,88.86636387215256
4.96,0.09048240711046068,88.71307095578985
4.97,0.06117175745238864,88.31659112890107
4.98,0.049753552565509174,87.85860488495318
4.99,0.057836542966530374,87.9201113020123
5.0,0.04869413149353066,87.40156489357544
5.01,0.00015695126992274185,87.06564523117565
5.02,0.21698513066819064,86.69944548653136
5.03,1.1976559029629625,86.69944548653136
5.04,1.814121253402012,86.30201940707245
5.05,0.8871278154208178,85.9973260794873
5.06,-0.03343062049354402,85.90553958018369
5.07,-0.05006745510535465,85.50905975329492
5.08,0.028525893308458335,85.11257992640614
5.09,0.013733236118239914,85.14286000865063
5.1,0.009456314012845198,84.68487376470274
5.11,0.011457442704360157,84.47102068385105
5.12,0.014047138658085398,83.95247427541419
5.13,0.019069579295613138,83.92219419316969
5.14,0.021345372709492893,83.43392786697731
5.15,0.01801015822363463,83.09800820457752
5.16,0.019854335645226845,83.03744804008855
5.17,0.02318955013108511,82.94566154078494
5.18,0.030056168190205068,82.60974187838515
5.19,0.038453061131071754,82.30504855079998
5.2,0.043632453038522236,81.8470623068521
5.21,0.05308876705136743,81.90762247134107
5.22,0.06623343590739707,81.35879598065972
5.23,0.08392969159118621,81.4193561451487
5.24,0.10955198640607382,80.87052965446735
5.25,0.13701845864255366,80.62639649137117
5.26,0.1695073715165612,80.59611640912668
5.27,0.205213785423985,80.56489007431205
5.28,0.24017468079927573,81.26700948135613
5.29,0.269328379187425,86.63793906947225
5.3,0.2922040267786647,94.93941286731277
5.31,0.30060091971953135,104.39909981100496
5.32,0.2834932312979525,112.42521411093466
5.33,0.2291880919046838,116.94167762821414
5.34,0.15961944151142848,118.16328969626521
5.35,0.0982514949716364,117.8879301983544
5.36,0.05034211982771945,117.82737003386542
5.37,0.01679378588173338,117.94943661541352
5.38,-0.005493294447295965,116.91139754596965
5.39,-0.018324060763480112,116.72877079993258
5.4,-0.026250099894578577,115.84307839428129
5.41,-0.025347630092522812,114.74447916034845
5.42,-0.027309520966557085,113.55503967968214
5.43,-0.024719825012831844,113.43297309813404
5.44,-0.01616598080204241,111.47990779336455
5.45,-0.009770216552690681,109.9536023977283
5.46,-0.0020011286915149586,108.3364567553586
5.47,0.006552715519274473,107.17635110436663
5.48,0.012359912506415922,106.62752461368528
5.49,0.02075680544728261,106.35216511577447
5.5,0.02397430648069882,105.8336187073376
5.51,0.027309520966557085,105.89512512439671
5.52,0.024719825012831844,105.80333862509312
5.53,0.02122765925705084,105.58948554424141
5.54,0.02122765925705084,105.46741896269332
5.55,0.018755676755767652,105.25356588184162
5.56,0.018912628025690395,104.70473939116027
5.57,0.02260098286887483,104.58267280961218
5.58,0.025465343544964866,101.95776818004309
5.59,0.023346501401007854,101.59156843539881
5.6,0.02397430648069882,101.53100827090982
5.61,0.02683866715678886,101.59156843539881
5.62,0.027309520966557085,100.61503578301405
5.63,0.02519067882260007,99.97442279302909
5.64,0.027623423506402567,99.82207612923652
5.65,0.029467600927994785,99.6385031306293
5.66,0.03142949180202906,99.5467166313257
5.67,0.030683973269896036,99.5467166313257
5.68,0.028368942038535593,99.5164365490812
5.69,0.026720953704346802,99.57794296614033
5.7,0.027309520966557085,98.78403705979265
5.71,0.027309520966557085,98.41783731514836
5.72,0.02656400243442406,98.2352105691113
5.73,0.03037007073005055,98.50962381445197
5.74,0.03233196160408482,98.05163757050408
5.75,0.0269956184267116,97.28895799897103
5.76,0.0245628737429091,96.77041159053417
5.77,0.02562229481488761,96.09857226573459
5.78,0.02683866715678886,94.66405336940196
5.79,0.02640705116450132,93.87109371562441
5.8,0.023346501401007854,93.01662764478775
5.81,0.02640705116450132,92.65042790014347
5.82,0.027466472236479827,91.55182866621062
5.83,0.02440592247298636,91.18562892156635
5.84,0.018324060763480112,90.66613626055934
5.85,0.014949608460141163,90.36144293297417
5.86,0.007180520598965441,89.90345668902629
5.87,-0.0006278050796909674,89.6896036081746
5.88,0.018755676755767652,89.11049703524876
5.89,0.058739012768586146,88.80485745509344
5.9,0.07949581821586875,88.59100437424175
5.91,0.07521889611047404,88.25603096441209
5.92,0.06470316102565034,87.76776463821972
5.93,0.03739364005909325,87.9201113020123
5.94,0.02122765925705084,87.40156489357544
5.95,0.025779246084810352,87.15743173047925
5.96,0.021502323979415636,87.00413881411653
5.97,-0.027623423506402567,86.85179215032394
5.98,0.077220024801989,86.21117916033899
5.99,0.8975258370531993,86.36352582413157
6.0,1.7179886005743326,85.8752594979392
6.01,1.060009639240718,85.5696199177839
6.02,0.008985460203076973,85.08135359159152
6.03,-0.12144104510272152,85.11257992640614
6.04,-0.01616598080204241,84.59308726539913
6.05,-0.02440592247298636,84.44074060160656
6.06,-0.03127254053210632,84.1360472740214
6.07,-0.030527021999973293,84.38018043711759
6.08,-0.029467600927994785,83.49448803146629
6.09,-0.02519067882260007,83.03744804008855
6.1,-0.023660403940853336,83.00622170527392
6.11,-0.023660403940853336,82.70152837768876
6.12,-0.026720953704346802,82.60974187838515
6.13,-0.02519067882260007,82.67124829544427
6.14,-0.01816710949355737,81.7552758075485
6.15,-0.010241070362458906,81.78555588979299
6.16,-0.004590824645240199,81.29728956360061
6.17,0.0027466472236479826,81.45058247996333
6.18,0.018755676755767652,80.96231615377096
6.19,0.04288693450638922,80.62639649137117
6.2,0.06850922932127683,80.44282349276395
6.21,0.09460237794593265,80.22991666448239
6.22,0.12406997887392744,80.16841024742328
6.23,0.15640194047801226,80.1381301651788
6.24,0.19136283585330302,80.1381301651788
6.25,0.22169366876587288,82.57946179614066
6.26,0.24657044504862746,89.35463019834494
6.27,0.2540648681874384,90.84970925916656
6.28,0.23895830845737448,107.20663118661112
6.29,0.19026417696384382,114.16537258742261
6.3,0.11947915422868724,117.03346412751775
6.31,0.052343248519234414,117.18581079131032
6.32,0.00015695126992274185,117.42994395440651
6.33,-0.03755059132901599,117.18581079131032
6.34,-0.06195651380200235,116.97290396302877
6.35,-0.07537584738039678,116.3625710552883
6.36,-0.08467521012331923,116.17899805668108
6.37,-0.08820661369658092,110.0756689792764
6.38,-0.08895213222871395,107.51227076676642
6.39,-0.08165389817730645,105.98596537113018
6.4,-0.07341395650636251,104.39909981100496
6.41,-0.06913703440096779,103.94205981962722
6.42,-0.0645462097557276,104.0026199841162
6.43,-0.060426238920255615,103.17843399552403
6.44,-0.053716572131058404,103.11787383103506
6.45,-0.05355962086113566,103.23994041258314
6.46,-0.05556074955265062,102.65988758708716
6.47,-0.052931815781444694,102.78195416863525
6.48,-0.05418742594082663,102.62960750484267
6.49,-0.059052915308431625,102.4772608410501
6.5,-0.06391840467603663,101.83570159849499
6.51,-0.06988255293310082,101.16480852626555
6.52,-0.07674917099222077,100.34062253767338
6.53,-0.07875029968373573,99.66878321287379
6.54,-0.07706307353206626,99.18051688668142
6.55,-0.07780859206419928,98.47934373220748
6.56,-0.08039828801792452,98.32605081584477
6.57,-0.0796527694857915,98.41783731514836
6.58,-0.07859334841381299,98.32605081584477
6.59,-0.07949581821586875,98.0213574882596
6.6,-0.08667633881483419,97.62487766137083
6.61,-0.09001155330069247,97.5936513265562
6.62,-0.0923265845320529,97.50281107982273
6.63,-0.09566179901791116,97.62487766137083
6.64,-0.09687817135981242,97.50281107982273
6.65,-0.0993501538610956,97.7157179081043
6.66,-0.09946786731353766,97.16689141742295
6.67,-0.09550484774798843,97.22745158191192
6.68,-0.09216963326213017,96.70890517347506
6.69,-0.09385685941379963,96.40421184588989
6.7,-0.09597570155775666,95.54974577505324
6.71,-0.10437259449862334,94.72555978646106
6.72,-0.11963610549861,93.87109371562441
6.73,-0.12191189891248974,93.93165388011339
6.74,-0.09291515179426318,93.80958729856529
6.75,-0.05662017062462913,92.80277456393605
6.76,-0.04135665962464248,92.28422815549919
6.77,-0.051126876177333164,91.64266891294409
6.78,-0.07231529761690332,90.72764267761846
6.79,-0.10099814219528438,90.02552327057438
6.8,-0.10727619299219407,89.53725694438201
6.81,-0.10405869195877786,89.23256361679684
6.82,-0.12100942911043398,88.65251079130087
6.83,-0.15153645111040728,88.34687121114555
6.84,0.10864951660401806,87.7980447204642
6.85,1.0348581982355984,87.43184497581993
6.86,1.461804890242937,87.43184497581993
6.87,0.5220199237630394,87.09592531342014
6.88,-0.25528124052933965,86.27173932482796
6.89,-0.23942916226714273,86.33324574188708
6.9,-0.16966432278648397,85.84497941569471
6.91,-0.16220913746515372,85.9973260794873
6.92,-0.15000617622866053,85.50905975329492
6.93,-0.14784809626722284,85.5696199177839
6.94,-0.14478754650372938,85.02079342710253
6.95,-0.14066757566825738,84.71515384694723
6.96,-0.1403929109458926,84.71515384694723
6.97,-0.1390195873340686,84.68487376470274
6.98,-0.13976510586620164,84.1360472740214
6.99,-0.13015184058343368,83.98275435765868
7.0,-0.12297131998446825,83.4642079492218
7.01,-0.11520223212329253,83.49448803146629
7.02,-0.10437259449862334,83.52571436628092
7.03,-0.09248353580197564,83.18979470388113
7.04,-0.07674917099222077,82.57946179614066
7.05,-0.0512838274472559,82.70152837768876
7.06,-0.019854335645226845,82.27382221598536
7.07,0.01616598080204241,81.87734238909658
7.08,0.04943965002566369,81.78555588979299
7.09,0.08271331924928496,81.4193561451487
7.1,0.12022467276082027,81.7552758075485
7.11,0.15181111583277207,82.27382221598536
7.12,0.1681340479047372,87.27949831202734
7.13,0.1631116072672095,89.26284369904133
7.14,0.12893546824153243,104.49088631030857
7.15,0.06132870872231139,111.81488120319419
7.16,-0.01573436480975487,115.78251822979232
7.17,-0.07616060373001049,116.1487179744366
7.18,-0.11826278188678599,116.63698430062897
7.19,-0.15624498920808952,116.78933096442155
7.2,-0.17653094084560392,116.20927813892557
7.21,-0.18889085335201983,115.99637131064401
7.22,-0.19422719652939305,114.68391899585947
7.23,-0.19485500160908403,113.43297309813404
7.24,-0.18783143228004132,111.20454829545373
7.25,-0.18339755890472387,108.39701691984757
7.26,-0.17884597207696434,105.9254052066412
7.27,-0.1711945976682307,105.25356588184162
7.28,-0.16236608873507646,102.38547434174649
7.29,-0.1582461178996045,101.6218485176433
7.3,-0.1533413907145188,101.13358219145091
7.31,-0.15396919579420976,101.16480852626555
7.32,-0.15365529325436428,100.70682228231766
7.33,-0.15181111583277207,100.76738244680664
7.34,-0.15381224452428702,100.27911612061426
7.35,-0.160678862583407,100.34062253767338
7.36,-0.1725679212800547,100.0662092923327
7.37,-0.1706060304060204,99.85235621148101
7.38,-0.16907575552427367,98.78403705979265
7.39,-0.1711945976682307,98.0213574882596
7.4,-0.1754715197736254,97.13661133517846
7.41,-0.18280899164251357,96.83097175502314
7.42,-0.18539868759623881,96.83097175502314
7.43,-0.1835545101746466,96.77041159053417
7.44,-0.18021929568878833,96.73918525571955
7.45,-0.17884597207696434,96.43449192813438
7.46,-0.18280899164251357,96.43449192813438
7.47,-0.18339755890472387,96.43449192813438
7.48,-0.18186728402297714,96.34270542883077
7.49,-0.19136283585330302,96.31242534658628
7.5,-0.203840461812161,96.37298551107526
7.51,-0.19928887498440148,96.40421184588989
7.52,-0.1649557846888017,96.37298551107526
7.53,-0.12650272355772993,95.97650568418649
7.54,-0.10986588894591931,95.5185194402386
7.55,-0.11626165319527104,94.81734628576467
7.56,-0.13395790887906017,93.7793072163208
7.57,-0.16617215703070295,93.6875207170172
7.58,-0.1762562761232391,92.95512122772864
7.59,-0.16538740068108923,91.94830849309939
7.6,-0.16997822532632945,91.15440258675171
7.61,-0.2211051015036626,90.78820284210744
7.62,-0.06195651380200235,89.93373677127077
7.63,0.7991173908116402,89.5675370266265
7.64,1.462707360044993,89.04899061818963
7.65,0.6987078158785661,88.65251079130087
7.66,-0.24629578032626268,88.25603096441209
7.67,-0.3358364798171869,87.9201113020123
7.68,-0.24170495568102246,87.52363147512354
7.69,-0.233778916549924,87.00413881411653
7.7,-0.2259705908712676,86.60765898722775
7.71,-0.2182015030100919,86.33324574188708
7.72,-0.2116487874908174,86.30201940707245
7.73,-0.2064693955833669,86.30201940707245
7.74,-0.20446826689185196,86.21117916033899
7.75,-0.20125076585843577,86.36352582413157
7.76,-0.19987744224661178,86.27173932482796
7.77,-0.1979155513725775,85.9670459972428
7.78,-0.1895186584317108,85.50905975329492
7.79,-0.17731569719521761,84.68487376470274
7.8,-0.1698212740564067,84.25811385556949
7.81,-0.1547147143263428,84.34895410230295
7.82,-0.1347426652286739,83.92219419316969
7.83,-0.11261253616956729,83.95247427541419
7.84,-0.0915418281824392,83.86068777611058
7.85,-0.05936681784827711,83.52571436628092
7.86,-0.01816710949355737,83.40364778473283
7.87,0.025779246084810352,83.49448803146629
7.88,0.057836542966530374,84.65459368245826
7.89,0.08667633881483419,84.71515384694723
7.9,0.10131204473512988,84.65459368245826
7.91,0.09534789647806569,89.93373677127077
7.92,0.05799349423645312,98.20398423429667
7.93,-0.006552715519274473,106.87165777678146
7.94,-0.08133999563746097,113.70738634347472
7.95,-0.14741648027493529,113.85973300726731
7.96,-0.1919514031155133,117.73558353456181
7.97,-0.2175736979304009,117.09497054457685
7.98,-0.23558385615403554,116.33134472047367
7.99,-0.2526915445756144,114.65363891361498
8.0,-0.26014672989694465,113.00526693643064
8.01,-0.2581848390229104,112.97498685418616
8.02,-0.25634066160131813,113.00526693643064
8.03,-0.2561837103313954,110.77778838632047
8.04,-0.2446085541745932,108.82472308155097
8.05,-0.23268025766046482,107.08456460506302
8.06,-0.22200757130571835,105.9254052066412
8.07,-0.21361067836485167,105.80333862509312
8.08,-0.2059985417735987,104.70473939116027
8.09,-0.20066219859622547,104.36881972876047
8.1,-0.2008191498661482,104.27703322945688
8.11,-0.20246713820033702,104.43032614581959
8.12,-0.20125076585843577,103.9723399018717
8.13,-0.19744469756280927,103.91083348481258
8.14,-0.198974972444556,103.45379349343484
8.15,-0.20721491411549994,103.20966033033865
8.16,-0.21180573876074016,101.9274880977986
8.17,-0.2140815321746199,101.8054215162505
8.18,-0.21682817939826787,100.27911612061426
8.19,-0.2175736979304009,99.57794296614033
8.2,-0.21455238598438814,99.05845030513332
8.21,-0.20980461006922518,99.18051688668142
8.22,-0.203840461812161,99.11995672219244
8.23,-0.2094907075293797,99.18051688668142
8.24,-0.2182015030100919,98.69225056048904
8.25,-0.2238517487273106,98.78403705979265
8.26,-0.2165142768584224,98.63169039600007
8.27,-0.17731569719521761,98.78403705979265
8.28,-0.13505656776851938,98.69225056048904
8.29,-0.13395790887906017,98.78403705979265
8.3,-0.14313955816954058,98.75375697754816
8.31,-0.16511273595872444,98.81431714203714
8.32,-0.19257920819520427,98.38755723290387
8.33,-0.20003439351653451,98.0213574882596
8.34,-0.19379558053710552,97.16689141742295
8.35,-0.2046252181617747,96.46477201037887
8.36,-0.23636861250364924,95.58002585729773
8.37,0.0364519324395568,94.69527970421657
8.38,1.0130419717163375,93.80958729856529
8.39,1.4901738322814726,93.19925439082482
8.4,0.5302598654339834,92.25300182068456
8.41,-0.3086839101205526,91.97858857534389
8.42,-0.32167162770665947,91.00205592295913
8.43,-0.24323523056276922,90.75792275986295
8.44,-0.23421053254221155,90.69736259537397
8.45,-0.22856028682499285,89.9649631060854
8.46,-0.22981589698437477,89.90345668902629
8.47,-0.22444031598952086,89.75111002523371
8.48,-0.22157595531343083,89.04899061818963
8.49,-0.21773064920032364,88.71307095578985
8.5,-0.2102754638789934,88.71307095578985
8.51,-0.20034829605638,88.68279087354536
8.52,-0.19560052014121704,88.22480462959747
8.53,-0.19242225692528153,87.7980447204642
8.54,-0.1884592373597323,87.88983121976781
8.55,-0.17241097001013195,87.4924051403089
8.56,-0.1509086460307163,87.40156489357544
8.57,-0.1358020863006524,87.03536514893116
8.58,-0.11979305676853273,86.69944548653136
8.59,-0.08577386901277843,86.69944548653136
8.6,-0.042102178156775506,86.27173932482796
8.61,0.0010594210719785076,86.36352582413157
8.62,0.04151361089456522,86.66916540428687
8.63,0.07627831718245255,90.23937635142609
8.64,0.09703512262973515,90.36144293297417
8.65,0.10633448537265762,97.04482483587485
8.66,0.0877357598868127,105.68127204354502
8.67,0.03127254053210632,108.79349674673634
8.68,-0.04257303196654373,117.73558353456181
8.69,-0.11017979148576479,119.38395551174615
8.7,-0.16432797960911072,119.29216901244254
8.71,-0.20097610113607095,119.35272917693152
8.72,-0.21698513066819064,119.01775576710187
8.73,-0.2329941602003103,118.98652943228724
8.74,-0.24613882905633994,119.07831593159085
8.75,-0.2520637394959234,118.89568918555378
8.76,-0.25496733798949417,118.59004960539848
8.77,-0.2575570339432194,118.46798302385038
8.78,-0.25069041588409946,117.39966387216202
8.79,-0.23668251504349475,116.72877079993258
8.8,-0.2305614155165078,111.51018787560903
8.81,-0.22338089491754237,110.71628196926136
8.82,-0.21149183622089465,110.68600188701686
8.83,-0.19944582625432422,110.47214880616517
8.84,-0.18724286501783105,110.2592419778836
8.85,-0.1786890208070416,110.31980214237258
8.86,-0.1782181669972734,109.89304223323933
8.87,-0.1841823152543376,109.80125573393572
8.88,-0.1892047558918653,109.12941640913613
8.89,-0.18861618862965504,108.79349674673634
8.9,-0.19179445184559055,107.05428452281853
8.91,-0.18889085335201983,106.01719170594481
8.92,-0.18312289418235908,104.82680597270836
8.93,-0.18461393124662512,103.94205981962722
8.94,-0.19042112823376656,103.23994041258314
8.95,-0.1943841477993158,102.87374066793886
8.96,-0.19866106990471052,102.69016766933166
8.97,-0.1965422277607535,102.75167408639076
8.98,-0.1873605784702731,102.72139400414628
8.99,-0.1887339020820971,102.87374066793886
9.0,-0.1908919820435348,102.41575442399098
9.01,-0.18614420612837185,102.29368784244288
9.02,-0.1792775880692519,102.41575442399098
9.03,-0.18386841271449209,102.38547434174649
9.04,-0.19422719652939305,102.26340776019839
9.05,-0.2046252181617747,102.78195416863525
9.06,-0.19944582625432422,102.4772608410501
9.07,-0.16295465599728673,102.1110610964058
9.08,-0.12053857530066575,101.89720801555411
9.09,-0.10802171152432709,101.10330210920642
9.1,-0.11335805470170031,99.91291637596998
9.11,-0.1280329984394767,99.24202330374054
9.12,-0.15593108666824404,98.32605081584477
9.13,-0.16997822532632945,97.62487766137083
9.14,-0.16723157810268147,96.43449192813438
9.15,-0.1719793540178444,95.91594551969752
9.16,-0.21835845428001463,95.12203961334984
9.17,-0.0642323072158821,94.78611995095004
9.18,0.8611916180660846,93.87109371562441
9.19,1.6531284882787594,93.50489397098013
9.2,0.8831647958552685,93.10746789152121
9.21,-0.18767448101011858,93.13869422633584
9.22,-0.3288129104881442,93.01662764478775
9.23,-0.22047729642397162,92.89456106323966
9.24,-0.20964765879930244,92.34478831998817
9.25,-0.20584159050367595,91.94830849309939
9.26,-0.20234942474789494,91.88680207604028
9.27,-0.19532585541885225,91.58210874845511
9.28,-0.19104893331345754,91.09384242226274
9.29,-0.19422719652939305,90.72764267761846
9.3,-0.19026417696384382,90.66613626055934
9.31,-0.18186728402297714,90.42200309746315
9.32,-0.17472600124149237,90.29993651591506
9.33,-0.1663291083006257,89.9952431883299
9.34,-0.160678862583407,89.90345668902629
9.35,-0.1568727942877805,89.6896036081746
9.36,-0.14494449777365212,89.53725694438201
9.37,-0.1280329984394767,89.01871053594515
9.38,-0.10146899600505262,88.74429729060446
9.39,-0.07051035801279178,88.74429729060446
9.4,-0.0364519324395568,88.25603096441209
9.41,0.006709666789197215,88.34687121114555
9.42,0.05144077871717865,88.22480462959747
9.43,0.08926603476855943,89.11049703524876
9.44,0.11720336081480749,93.7793072163208
9.45,0.13489961649859664,101.77514143400602
9.46,0.12956327332122342,110.04538889703191
9.47,0.08483216139324198,116.97290396302877
9.48,0.008985460203076973,120.20719524776818
9.49,-0.06117175745238864,121.06166131860483
9.5,-0.11720336081480749,121.39758098100462
9.51,-0.15593108666824404,121.06166131860483
9.52,-0.18049396041115315,120.57339499241246
9.53,-0.19285387291756906,120.69546157396056
9.54,-0.20415436435200648,120.1769151655237
9.55,-0.20721491411549994,119.75015525639043
9.56,-0.21529790451652114,118.95624935004275
9.57,-0.21926092408207037,118.74239626919106
9.58,-0.21470933725431088,117.82737003386542
9.59,-0.20737186538542268,116.72877079993258
9.6,-0.20340884581987345,115.8127983120368
9.61,-0.19532585541885225,115.5989452311851
9.62,-0.18677201120806283,115.11067890499272
9.63,-0.18433926652426033,114.74447916034845
9.64,-0.1695073715165612,114.65363891361498
9.65,-0.15534251940603377,114.25621283415607
9.66,-0.14878980388675928,114.65363891361498
9.67,-0.1452584003134976,114.59213249655586
9.68,-0.14298260689961784,114.1956526696671
9.69,-0.14510144904357486,113.46325318037853
9.7,-0.14541535158342034,112.27286744714209
9.71,-0.1420408992800814,111.14398813096476
9.72,-0.14784809626722284,109.58740265308403
9.73,-0.14937837114896957,109.58740265308403
9.74,-0.14741648027493529,109.55712257083952
9.75,-0.14129538074794837,109.67918915238762
9.76,-0.1385487335243004,109.5258962360249
9.77,-0.14082452693818015,108.73293658224736
9.78,-0.14054986221581534,106.59629827887065
9.79,-0.1382348309844549,105.98596537113018
9.8,-0.1382348309844549,105.10121921804904
9.81,-0.13748931245232188,105.16272563510816
9.82,-0.13427181141890568,105.22328579959714
9.83,-0.1298379380435882,105.10121921804904
9.84,-0.12818994970939943,105.10121921804904
9.85,-0.1298379380435882,105.07093913580455
9.86,-0.12650272355772993,104.70473939116027
9.87,-0.11995000803845547,104.73501947340476
9.88,-0.11779192807701777,104.36881972876047
9.89,-0.121754947642567,104.03290006636068
9.9,-0.12297131998446825,103.17843399552403
9.91,-0.12006772149089753,102.355194259502
9.92,-0.11732107426724954,101.13358219145091
9.93,-0.11320110343177757,100.37090261991787
9.94,-0.10939503513615108,99.5467166313257
9.95,-0.10711924172227132,98.87582355909626
9.96,-0.10759009553203955,98.05163757050408
9.97,-0.10743314426211681,97.16689141742295
9.98,-0.10374478941893238,96.83097175502314
9.99,-0.09766292770942613,96.43449192813438
