time_s,ECG1,ECG2,NIBP
0.0,-0.21045895279932997,-7.48894678387784,82.95835660706194
0.01,-0.1199618244682412,-6.790647598161428,83.65477049506516
0.02,0.09293222718539888,6.830798444892597,87.56955149027777
0.03,-0.1460616567339833,-6.878002818752214,87.98548198793202
0.04,0.08653455837725685,6.89916340013756,88.19884114811201
0.05,-0.16403711373125435,-6.908929822315412,89.15176548711814
0.06,0.04188370029413404,7.036435889637367,89.58927163018384
0.07,-0.16403711373125435,-6.808010126477609,89.63482021494137
0.08,0.06855910137998579,7.116195004089825,89.19731407187567
0.09,-0.17506147036258562,-6.819132996180163,89.28721259442341
0.1,0.10103446519155801,7.342179161705121,88.69148505167367
0.11,-0.15071048181948443,-6.709532036184269,88.45655024608222
0.12,0.0598591572914051,7.277883549034263,87.51441372978182
0.13,-0.11706184310538097,-6.863081895980496,86.29059517616514
0.14,0.07203465156295569,7.322917606854357,84.38354785118558
0.15,-0.15766158218542423,-6.893195031028873,82.42016411874276
0.16,0.08248343937417729,7.343264319724883,80.8043880068179
0.17,-0.11183744919977016,-6.974853172015913,79.95215001306525
0.18,0.07378349528559659,7.533166973183114,79.44632099286325
0.19,-0.153034894362235,-6.814521074596177,79.37919676269426
0.2,0.07958345801131705,7.606686429021944,79.52543169270527
0.21,-0.1286617685568219,-6.730963907074555,80.05283635831873
0.22,0.1254075909969711,7.797674240499937,80.37766968645792
0.23,-0.15823715100553387,-6.8606402904360335,80.52390461646893
0.24,0.08131016447164605,7.761321446837933,80.06362418102447
0.25,-0.15071048181948443,-6.851959026277942,79.58176810016853
0.26,0.08131016447164605,7.723069626641346,79.49186957762078
0.27,-0.13156174991968214,-6.945282615977416,79.63690586066448
0.28,0.07493463292581592,7.771087869015784,79.55899380778976
0.29,-0.16346154491114467,-6.995742463896318,79.19939971759878
0.3,0.08363457701439661,7.750198577135379,78.66120722927958
0.31,-0.16693709509411458,-7.108056318941615,78.1230147409604
0.32,0.10858327163991938,7.666370120108817,77.69629642060043
0.33,-0.12401294347132076,-7.316406658735789,77.34868880008247
0.34,0.07435906410570625,7.6240489573381245,76.98909470989148
0.35,-0.17101035135950604,-7.316406658735789,76.675049204458
0.36,0.15555854226579274,7.802828741093803,76.29387946885555
0.37,-0.11881068682802187,-7.328072107448223,75.91270973325311
0.38,0.14048306663138194,7.801743583074042,75.46321712051436
0.39,-0.08516204811391842,-7.326173080913641,75.0029366850699
0.4,0.15615624834821432,7.842979587824972,74.52108060421396
0.41,-0.13503730010265202,-7.34950397833851,74.31850926673971
0.42,0.09583220854825912,7.929249650395997,74.16148651402297
0.43,-0.16463481981367592,-7.389383535564739,73.96011382351601
0.44,0.07725904546856649,7.926265465841654,73.7024047255458
0.45,-0.17681031408522652,-7.385856772000515,73.44349698060829
0.46,0.08015902683142671,7.921110965247787,73.14143794484785
0.47,-0.18435912053358788,-7.387755798535096,72.81540596974136
0.48,0.026786087397411305,8.060011191777237,72.59125898685564
0.49,-0.21103452161943964,-7.41488474902913,72.41146194176014
0.5,0.3876013258192351,8.197826260286925,72.22087707395892
0.51,0.5772733893076815,-6.992758279341975,72.06385432124218
0.52,0.6805215807304305,8.476169292355705,71.79415875359894
0.53,-0.035862364945294475,-7.104529555377391,71.52566183292299
0.54,-0.0491889968570644,8.154419939496472,71.36863908020626
0.55,-0.2458342979737624,-7.428720513781086,71.24517844257402
0.56,0.08131016447164605,8.185618232564611,71.10973133526875
0.57,-0.20175900871074928,-7.420581828632876,70.80767229950831
0.58,0.06101029493162442,8.305528193748236,70.49242814710755
0.59,-0.16868593881675548,-7.295517366855384,70.34739186406385
0.6,0.08538342073703752,8.384202150180933,70.26828116422183
0.61,-0.20058573380821804,-7.266760679331709,70.17838264167408
0.62,0.07551020174592558,8.310682694342104,69.98779777387286
0.63,-0.16403711373125435,-7.362797164080586,69.90988572099813
0.64,0.10743213399970004,8.37443572800308,69.74087649860837
0.65,-0.1704347825393964,-7.426550197741564,69.40525534776344
0.66,0.08770783327978808,8.318278800480432,69.07922337265694
0.67,-0.18203470799083732,-7.504138996154499,68.93298844264594
0.68,0.09873218991111934,8.277585374739383,68.88863850485572
0.69,-0.15823715100553387,-7.478095203680227,68.83230209739246
0.7,0.10103446519155801,8.297389508600027,68.85507638977123
0.71,-0.14548608791387363,-7.48894678387784,68.74240357484472
0.72,0.13815865408863137,8.285724059887592,69.15833407249896
0.73,-0.13446173128254235,-7.478095203680227,70.44807820931732
0.74,0.1619562110739348,8.41377270621943,72.83818026212012
0.75,-0.07471326030269682,-7.618080588229438,76.20398094630781
0.76,0.19618041860814792,8.280026980283845,80.32133327899467
0.77,-0.045137877853984834,-7.5578543181326845,84.3943356738913
0.78,0.2913042347624259,8.351918699093034,87.80568494283652
0.79,0.07783461428867615,-7.550258211994355,90.17301270326055
0.8,0.37367698782504366,8.252898029789812,91.17148562702421
0.81,0.1445563228967734,-7.649278881297576,91.27217197227769
0.82,0.43457659644510854,8.222784894741435,90.7339794839585
0.83,0.1497585795400723,-7.643581801693829,90.20657481834505
0.84,0.38702575699912545,8.350562251568332,89.8254050827426
0.85,0.05231035084304373,-7.476738756155525,89.6791701527316
0.86,0.27332877776515485,8.538837167996922,89.66838233002586
0.87,-0.05788894094564509,-7.388840956554858,89.7127322678161
0.88,0.16948288025998426,8.501127926810215,89.81461726003687
0.89,-0.13331059364232303,-7.481893256749392,89.86975502053282
0.9,0.13643194762830238,8.417842048793533,89.97164001275361
0.91,-0.13098618109957247,-7.553242396548699,90.13945058817606
0.92,0.09988332755133868,8.387728913745157,90.7339794839585
0.93,-0.13968612518815315,-7.606415139517003,91.27217197227769
0.94,0.13525867272577113,8.182091469000387,91.49751760213071
0.95,-0.16346154491114467,-7.831856718122419,91.46395548704622
0.96,0.11033211536256028,8.037494162867189,91.21703421178174
0.97,-0.14143496891079407,-7.7716304480256655,90.98090075922299
0.98,0.11960762827125064,8.230923579889646,90.5877445539475
0.99,-0.1443349502736543,-7.74314505000693,89.97164001275361
1.0,0.15265856090293253,8.291149849986398,89.01751702678017
1.01,-0.1373617126454026,-7.708962572384449,87.6151000750353
1.02,0.14745630425963363,8.229567132364943,85.80873909530922
1.03,-0.15128605063959408,-7.681833621890416,83.85614318557212
1.04,0.13005641608247223,8.26727637355165,82.0725564982248
1.05,-0.12171066819088211,-7.619708325259079,80.99497287461914
1.06,0.1375830852685217,8.272973453155396,80.4447939166269
1.07,-0.13793728146551226,-7.533438262688055,80.31054545628893
1.08,0.1631073487141541,8.419469785823175,80.4447939166269
1.09,-0.14143496891079407,-7.57928618902297,80.6581530768069
1.1,0.14860744189985295,8.222242315731554,80.9506229368289
1.11,-0.1478105004566242,-7.796860371985116,81.10764568954563
1.12,0.1167076469083904,8.109114592171437,81.17476991971462
1.13,-0.14838606927673387,-7.7900781343616075,80.69171519189139
1.14,0.1532562669853541,8.101247196528167,80.07441200373019
1.15,-0.14548608791387363,-7.745586655551393,79.81670290575998
1.16,0.13525867272577113,8.229024553355064,79.70522873780077
1.17,-0.1460616567339833,-7.653348223871681,79.69324226812773
1.18,0.14105863545149158,8.26727637355165,79.35642247031551
1.19,-0.1373617126454026,-7.601803217933018,78.80744215929059
1.2,0.12655872863719042,8.121322619893752,78.07746615620287
1.21,-0.13271288755990146,-7.802828741093803,77.53927366788369
1.22,0.15905622971107455,7.883401724061081,77.30314021532494
1.23,-0.15418603200245432,-7.810967426242013,76.93395694939552
1.24,0.1306319849025819,8.007381027818813,76.3837779914033
1.25,-0.08748646065666899,-7.6313737739715135,75.82281121070535
1.26,0.18283164943406607,8.074932114548956,75.49677923559885
1.27,-0.08341320439127752,-7.6783068583261915,75.22828231492292
1.28,0.21938026951102976,8.112641355735661,74.91423680948945
1.29,-0.11591070546516165,-7.708962572384449,74.57741701167721
1.3,0.1497585795400723,7.978895629800078,74.26337150624376
1.31,-0.11938625564813153,-7.737447970403183,74.01645023097927
1.32,0.1445563228967734,7.94715475772206,73.74675466333602
1.33,-0.1443349502736543,-7.8223615854495065,73.47705909569278
1.34,0.12308317845422054,7.94010123059361,73.17500005993234
1.35,-0.17681031408522652,-7.7599649993132305,73.02876512992134
1.36,0.10278330891419891,7.943627994157835,72.81540596974136
1.37,-0.20928567789679872,-7.733921206838959,72.4677983492234
1.38,0.15730738598843366,8.016604870986784,72.17652713616869
1.39,0.3214773232935595,-7.600718059913256,72.17652713616869
1.4,0.7541943897044675,8.237705817513154,71.9967300910732
1.41,0.250128926862273,-7.560295923677147,71.55922394800749
1.42,0.11613207808828074,7.960990522474016,71.32309049544874
1.43,-0.24698543561398176,-7.851389562478122,71.27874055765851
1.44,0.10743213399970004,7.886385908615425,71.12171780494178
1.45,-0.15941042590806512,-7.75942242030335,70.79568582983528
1.46,0.16078293617140355,7.945255731187477,70.62787525441281
1.47,-0.1460616567339833,-7.784923633767741,70.57153884694957
1.48,0.13120755372269158,7.877704644457334,70.45886603202305
1.49,-0.13968612518815315,-7.766747236936739,70.14482052658958
1.5,0.15035628562249387,7.987034314948288,69.80800072877736
1.51,-0.09966195492821958,-7.647651144267933,69.65097797606062
1.52,0.1578829548085433,8.02175937158065,69.55029163080714
1.53,-0.1460616567339833,-7.6864455434744015,69.4268309931749
1.54,0.16078293617140355,7.998157184650841,69.25902041775244
1.55,-0.1304106122794628,-7.774885922084949,69.09001119536268
1.56,0.15615624834821432,7.909988095545234,68.86586421247695
1.57,-0.09268871729996787,-7.6894297280287445,68.66449152197
1.58,0.16138064225382512,7.885029461090723,68.52904441466472
1.59,-0.12171066819088211,-7.814494189806237,68.58538082212799
1.6,0.17470727416559506,7.727138969215451,69.07922337265694
1.61,-0.06718659111664736,-7.850304404458361,69.9662221284614
1.62,0.20023153761122747,7.758337262283589,71.72703452342995
1.63,-0.09733754238546902,-7.92382386029719,74.75721405677271
1.64,0.22980692005993947,7.77569979059977,78.80744215929059
1.65,-0.007438120136801817,-7.783567186243039,83.14894147486318
1.66,0.3150796544854174,7.92273870227743,86.8179998417786
1.67,0.07493463292581592,-7.7135744939684345,89.45502316984587
1.68,0.40962790181958575,8.014977133957142,91.01446287430748
1.69,0.1752828429857047,-7.580913926052612,91.34049484941399
1.7,0.47692517924779265,8.050787348609266,90.81309018380053
1.71,0.18398278707428542,-7.639512459119723,90.16222488055483
1.72,0.4450253842563301,8.02827031969922,89.77985649798508
1.73,0.1236587472743302,-7.695669386642372,89.62283374526834
1.74,0.3411794867511595,7.922196123267549,89.75828085257362
1.75,0.045359250477103936,-7.71818641555242,90.00520212783809
1.76,0.2744799154053742,7.966145023067883,90.20657481834505
1.77,-0.07123771011972692,-7.720628021096883,89.89252931291159
1.78,0.20023153761122747,7.990018499502631,90.25212340310257
1.79,-0.08573761693402808,-7.8619698531707956,90.86822794429648
1.8,0.18688276843714563,7.853831168022586,91.29494626465646
1.81,-0.09501312984271844,-7.733921206838959,91.5310797172152
1.82,0.17298056770526604,7.834298323666881,91.62097823976296
1.83,-0.1095130366570196,-7.953936995345567,91.76601452280666
1.84,0.17588054906812628,7.90646133198101,91.65454035484744
1.85,-0.1008130925684389,-7.627847010407289,91.4184069022887
1.86,0.17470727416559506,8.092294642865136,91.08158710447647
1.87,-0.1008130925684389,-7.761050157332992,90.74476730666424
1.88,0.18398278707428542,7.895609751783397,89.86975502053282
1.89,-0.08688875457424741,-7.802286162083923,88.59079870642019
1.9,0.18398278707428542,7.867666932774542,86.98700906416836
1.91,-0.09386199220249912,-7.832399297132299,85.21421019952678
1.92,0.19558271252572634,7.926808044851534,83.26161428978969
1.93,-0.10546191765394004,-7.68590296446452,81.6014882400746
1.94,0.19385600606539735,7.9406438096034915,80.6581530768069
1.95,-0.08806202947677864,-7.720085442087002,80.32133327899467
1.96,0.20140481251375872,7.969671786632107,80.27698334120444
1.97,-0.09558869866282811,-7.784923633767741,80.41123180154241
1.98,0.18225608061395643,7.7526401826798415,80.6245909617224
1.99,-0.10023752374832924,-7.807983241687669,80.74805159935465
2.0,0.17238286162284447,7.8619698531707956,80.89428652936566
2.01,-0.09966195492821958,-7.742059891987169,80.93863646715587
2.02,0.184580493156707,7.928707071386117,80.81517582952364
2.03,-0.09733754238546902,-7.6916000440682675,80.63657743139544
2.04,0.15845852362865298,7.9957155791063785,80.3333197486677
2.05,-0.11183744919977016,-7.6812910428805345,79.97372565847671
2.06,0.17645611788823595,7.994630421086617,79.63690586066448
2.07,-0.10721076137658095,-7.672609778722444,79.34563464760978
2.08,0.19210716234275643,7.977810471780317,78.86377856675385
2.09,-0.11763741192549064,-7.601260638923137,78.3028117860559
2.1,0.18340721825417575,7.929249650395997,77.80896923552693
2.11,-0.08398877321138717,-7.623235088823304,77.51649937550494
2.12,0.1683317426197649,7.929249650395997,77.07899323243922
2.13,-0.1008130925684389,-7.608856745061466,76.47367651395105
2.14,0.18515606197681664,7.899679094357501,75.85637332578985
2.15,-0.10023752374832924,-7.667997857138459,75.51955352797762
2.16,0.21938026951102976,7.825617059508791,75.36253077526088
2.17,-0.06311333485125589,-7.68590296446452,75.01492315474293
2.18,0.23793129532841048,7.858443089606571,74.52108060421396
2.19,-0.057313372125535424,-7.51390541833235,74.16148651402297
2.2,0.20198038133386836,7.92328128128731,74.11713657623275
2.21,-0.07818881048566671,-7.538864052786861,73.91456523875848
2.22,0.17065615516251548,7.9083603585155915,73.49983338807155
2.23,-0.12461064955374233,-7.57928618902297,73.14143794484785
2.24,0.1132320967254205,7.7548104987193645,72.98441519213112
2.25,-0.1478105004566242,-7.608314166051586,72.83818026212012
2.26,0.14860744189985295,7.821005137924805,72.47858617192912
2.27,-0.18145913917072765,-7.520145076945978,72.16454066649565
2.28,0.06740796373976646,7.8098822682222515,71.96316797598871
2.29,0.005335080217170351,-7.570062345854999,71.78337093089321
2.3,0.8522181872216058,7.97211339217657,71.53644965562873
2.31,0.4740251978849324,-7.342450451210062,71.28952838036425
2.32,0.3661281813766823,7.690514886048506,71.15527992002627
2.33,-0.25105869187937324,-7.61238350862569,71.16606774273201
2.34,0.03838601284885223,7.519873787441038,70.93113293714056
2.35,-0.16056156354828446,-7.6430392226839485,70.57153884694957
2.36,0.12830757235983134,7.43984338348364,70.35817968676957
2.37,-0.17913472662797708,-7.6834613589200575,70.21194475675857
2.38,0.11380766554553018,7.409187669425383,69.99978424354589
2.39,-0.13853498754793384,-7.556769160112923,69.7864250833659
2.4,0.11148325300277961,7.396437062693187,69.68573873811242
2.41,-0.15651044454520488,-7.523671840510202,69.55029163080714
2.42,0.1375830852685217,7.328072107448223,69.2470339480794
2.43,-0.1182129807456003,-7.621607351793662,68.93298844264594
2.44,0.13643194762830238,7.251839756559991,68.70884145976022
2.45,-0.14201053773090372,-7.496542890016169,68.5518187070435
2.46,0.14860744189985295,7.315321500716028,68.39479595432675
2.47,-0.1373617126454026,-7.484334862293855,68.30489743177901
2.48,0.15383183580546375,7.336210792596433,68.26054749398878
2.49,-0.12171066819088211,-7.264861652797126,68.29410960907327
2.5,0.12830757235983134,7.2713726009156945,68.372021661948
2.51,-0.11301072410230141,-7.245328808441423,68.63092940688551
2.52,0.17470727416559506,7.272457758935456,69.51672951572266
2.53,-0.08398877321138717,-7.180490616760683,71.41298901799648
2.54,0.21995583833113944,7.342179161705121,74.48751848912947
2.55,-0.02366473341143197,-7.007136623103812,78.49339665385713
2.56,0.26287998995393325,7.385585482495574,82.70064750909174
2.57,0.054634763385794295,-6.974853172015913,86.22347094599616
2.58,0.3765769691879039,7.296873814380086,88.72624581372547
2.59,0.156731817168324,-6.987603778748108,90.13945058817606
2.6,0.45082534698205057,7.213587936363404,90.61051884632627
2.61,0.1979071250684769,-7.043218127260876,90.26291122580831
2.62,0.44965207207951935,6.9517935640959845,89.51135957730914
2.63,0.1619562110739348,-7.147393297157963,88.91683068152669
2.64,0.37425255664515333,6.855757079347107,88.73703363643119
2.65,0.0441859755745727,-7.16936774705813,88.80415786660018
2.66,0.25302890822513324,6.913541743899398,88.98395491169568
2.67,-0.04456230903387517,-7.073873841319133,89.05107914186466
2.68,0.1967559874282576,6.7578215680636475,89.15176548711814
2.69,-0.07993765420830762,-7.001439543500065,88.93840632693815
2.7,0.15730738598843366,6.749140303905557,89.34235035491936
2.71,-0.12576178719396167,-6.896179215583216,89.95965354308058
2.72,0.14745630425963363,6.832426181922239,90.22934911072382
2.73,-0.14491051909376396,-6.84978871023842,90.17301270326055
2.74,0.14570746053699274,6.670466347472861,90.1166762957973
2.75,-0.11416186174252074,-6.861454158950854,90.02677777324955
2.76,0.1428074791741325,6.783322781528039,89.73550656019485
2.77,-0.10546191765394004,-6.675349558561787,89.37591247000385
2.78,0.15730738598843366,6.658800898760427,88.53446229895694
2.79,-0.1025619362910798,-6.653917687671501,87.31184239230757
2.8,0.16078293617140355,6.683216954205057,85.71884057276147
2.81,-0.10488634883383038,-6.562493124506609,83.88970530065662
2.82,0.1306319849025819,6.540247385101503,82.16245502077255
2.83,-0.11763741192549064,-6.656359293215964,80.76003806902769
2.84,0.15383183580546375,6.491957853222123,79.80591508305424
2.85,-0.09328642338238945,-6.5741585732190435,79.46909528524202
2.86,0.1497585795400723,6.430646425105609,79.47988310794774
2.87,-0.09791311120557868,-6.402703606096754,79.7160165605065
2.88,0.14395861681435182,6.493314300746825,80.0072877735612
2.89,-0.09791311120557868,-6.297443278179906,80.37766968645792
2.9,0.15615624834821432,6.528581936389068,80.5466789088477
2.91,-0.11648627428527131,-6.154473709076352,80.53469243917466
2.92,0.14745630425963363,6.539433516586681,80.29975763358321
2.93,-0.10371307393129914,-6.124903153037855,80.0072877735612
2.94,0.13700751644841203,6.4485515324316705,79.70522873780077
2.95,-0.10141079865086049,-5.974880056805852,79.43553317015753
2.96,0.15440740462557342,6.559780229457206,79.17782407218732
2.97,-0.11241301801987984,-6.127073469077378,78.87456638945957
2.98,0.11263439064299893,6.219854479766971,78.42507377672084
2.99,-0.11706184310538097,-6.193268108282819,77.93242987315918
3.0,0.16890731143987459,6.1620698152146804,77.52848584517797
3.01,-0.08398877321138717,-6.061150119376878,77.11255534752371
3.02,0.18340721825417575,6.156372735610933,76.66426138175228
3.03,-0.058464509765754756,-5.984103899973824,76.21476876901353
3.04,0.20023153761122747,6.187028449669191,75.84558550308412
3.05,-0.05036227175959563,-5.831910487702298,75.55311564306211
3.06,0.1752828429857047,6.185129423134609,75.12639732270213
3.07,-0.08168649793094852,-5.840591751860388,74.67810335693069
3.08,0.11438323436563984,6.133041838186065,74.30772144403397
3.09,-0.11591070546516165,-5.755406847309124,74.03802587639073
3.1,0.11380766554553018,6.027238931259336,73.92655170843152
3.11,-0.12111296210846054,-5.859039438196331,73.75754248604176
3.12,0.11263439064299893,5.943681763737714,73.38835922011233
3.13,-0.1356128689227617,-5.7491671886954965,73.06232724500583
3.14,0.016359436848501614,5.906786391065829,72.86095455449887
3.15,-0.01438922050274161,-5.699792498796357,72.71471962448788
3.16,0.7425944642530266,6.127344758582319,72.49057264160216
3.17,0.5181004871479455,-5.457259681379701,72.21008925125318
3.18,0.4398009903507193,5.819973749484923,72.00751791377893
3.19,-0.20175900871074928,-5.8167182754256395,71.76059663851444
3.2,-0.010338101499662048,5.656114888500963,71.53644965562873
3.21,-0.15941042590806512,-5.634411728105737,71.312302672743
3.22,0.09988332755133868,5.78524869285256,71.14329345035324
3.23,-0.10721076137658095,-5.576084484543565,71.04260710509976
3.24,0.09060781464264832,5.646077176818171,70.99825716730955
3.25,-0.1321373187397918,-5.630884964541512,70.88558435238303
3.26,0.10335887773430857,5.580696406127551,70.57153884694957
3.27,-0.1147374305626304,-5.680259654440652,70.20115693405285
3.28,0.10045889637144835,5.4244336512819205,69.97700995116712
3.29,-0.10488634883383038,-5.698164761766715,69.99978424354589
3.3,0.11263439064299893,5.357153854056718,69.9662221284614
3.31,-0.12401294347132076,-5.673206127312204,69.67375226843939
3.32,0.1219320408140012,5.390793752669319,69.30337035554267
3.33,-0.08516204811391842,-5.477606394250225,69.11278548774143
3.34,0.12133433473157963,5.455089365340178,69.00131131978223
3.35,-0.08051322302841728,-5.354169669502375,68.85507638977123
3.36,0.11960762827125064,5.5448861914754275,68.78795215960224
3.37,-0.09386199220249912,-5.257590605743617,68.9893248501092
3.38,0.15093185444260354,5.518842399001156,69.69652656081814
3.39,-0.059637784668285995,-5.16996409564789,71.35665261053323
3.4,0.1805072368913155,5.614878883750033,73.97090164622175
3.41,0.017510574488720943,-5.072299873869371,77.37146309246123
3.42,0.2507044956823827,5.704133130875402,81.32100484972563
3.43,0.08480785191692786,-5.026994526544335,85.28133442969576
3.44,0.373101419004934,5.641465255234185,88.49011236116671
3.45,0.16368291753426378,-4.984130784763763,90.27369904851403
3.46,0.4264522211766375,5.61270856771051,90.86822794429648
3.47,0.23503131396555027,-4.942080911498012,90.6560674310838
3.48,0.45314975952480113,5.591276696820224,90.02677777324955
3.49,0.20370708779419736,-4.987114969318107,89.43224887746712
3.5,0.3707770064621834,5.502022449694855,89.09542907965489
3.51,0.08190787055406762,-4.935569963379444,89.04029131915894
3.52,0.2640311275941526,5.537290085337098,89.04029131915894
3.53,-0.013813651682631945,-4.924718383181831,89.17453977949691
3.54,0.18688276843714563,5.416837545143591,88.72624581372547
3.55,-0.07471326030269682,-5.039745133276531,88.8832685664422
3.56,0.14745630425963363,5.250808368120109,89.76906867527934
3.57,-0.09676197356535934,-4.907084565360709,90.34202192565033
3.58,0.11553437200585917,5.4846599213786735,90.45349609360953
3.59,-0.08806202947677864,-4.89162106357911,90.38637186344054
3.6,0.1323586913629109,5.391878910689081,90.41993397852504
3.61,-0.07761324166555705,-4.804265842988324,90.41993397852504
3.62,0.13525867272577113,5.505006634249199,90.3300354559773
3.63,-0.06311333485125589,-4.780392366553574,89.89252931291159
3.64,0.1428074791741325,5.434742652469653,89.27522612475038
3.65,-0.057313372125535424,-4.655870483785963,88.27675320098673
3.66,0.13990749781127226,5.420364308707815,86.74008778890388
3.67,-0.08398877321138717,-4.726677044575389,84.81026617154556
3.68,0.14048306663138194,5.294757267920442,82.84688243910274
3.69,-0.07936208538819796,-4.720708675466701,81.32100484972563
3.7,0.13468310390566146,5.199263362181446,80.4447939166269
3.71,-0.05266454704003429,-4.760859522197871,80.0408498886457
3.72,0.15555854226579274,5.157484778420635,80.11996058848771
3.73,-0.055564528402894525,-4.769540786355961,80.84873794460813
3.74,0.13120755372269158,5.051410581988965,81.69018811565505
3.75,-0.0561622344853161,-4.817016449720519,81.95988368329829
3.76,0.14570746053699274,5.032420316643142,81.94909586059256
3.77,-0.1008130925684389,-4.823256108334147,81.69018811565505
3.78,0.11785878454860974,4.932314489320159,81.29823055734687
3.79,-0.07646210402533772,-4.76004565368305,81.08487139716688
3.8,0.13005641608247223,5.054394766543309,80.9841850519134
3.81,-0.07761324166555705,-4.6618388528946495,80.69171519189139
3.82,0.14105863545149158,5.005291366149109,80.25420904882569
3.83,-0.07356212266247748,-4.679743960220711,79.78314079067549
3.84,0.13295639744533247,4.975178231100732,79.35642247031551
3.85,-0.04456230903387517,-4.597000661213911,78.94169061962856
3.86,0.127156434719612,4.936383831894265,78.5605208840261
3.87,-0.050937840579705296,-4.605681925372001,78.11102827128737
3.88,0.1793560992510962,4.916579698033621,77.63996001313717
3.89,-0.025413577134072874,-4.562818183591429,77.1461174626082
3.9,0.17818282434856494,4.922548067142308,76.61871279699476
3.91,0.02388610603455107,-4.509916730128064,76.30466729156129
3.92,0.18630719961703598,4.892977511103812,76.04695819359108
3.93,-0.04861342803695473,-4.512358335672527,75.8000369183266
3.94,0.13643194762830238,4.865577271104838,75.47520359018739
3.95,-0.07238884775994625,-4.525108942404723,75.08204738491192
3.96,0.10915884046002904,4.681100407745413,74.70087764930946
3.97,-0.11648627428527131,-4.6640091689341725,74.37484567420296
3.98,0.08015902683142671,4.525108942404723,74.2070350987805
3.99,-0.07066214129961726,-4.625214769727705,74.00446376130624
4.0,0.045359250477103936,4.494453228346465,73.79230324809355
4.01,-0.1443349502736543,-4.700633252101117,73.65685614078828
4.02,0.4635764100737108,4.714469016853074,73.48904556536581
4.03,0.6375974291076366,-4.222349854891314,73.15222576755359
4.04,0.6271707785587269,4.851741506352881,72.77105603195113
4.05,-0.0491889968570644,-4.365862003004748,72.59125898685564
4.06,-0.020764752048571738,4.659668536855127,72.49057264160216
4.07,-0.12633735601407134,-4.385666136865392,72.35512553429689
4.08,0.08131016447164605,4.6566843523007835,72.21008925125318
4.09,-0.08978873593710764,-4.22804693449506,72.00751791377893
4.1,0.10973440928013871,4.740512809327345,71.71624670072423
4.11,-0.08516204811391842,-4.166735506378545,71.50288754054424
4.12,0.09350779600550856,4.716368043387656,71.28952838036425
4.13,-0.07646210402533772,-4.167820664398307,71.07616922018425
4.14,0.10683442791727847,4.669977538042859,70.94192075984628
4.15,-0.06601331621411612,-4.140691713904274,70.81846012221405
4.16,0.13120755372269158,4.659668536855127,70.6614373694973
4.17,-0.07818881048566671,-4.014270804602079,70.42530391693856
4.18,0.10510772145694948,4.586691660026178,70.21194475675857
4.19,-0.05906221584817633,-4.106509236281792,70.03334635863038
4.2,0.10335887773430857,4.518869283791095,69.9314613664096
4.21,-0.06368890367136555,-4.094301208559477,69.83077502115611
4.22,0.14685859817721206,4.389192900429617,69.77443861369287
4.23,-0.03758907140562347,-4.069342574104967,70.05492200404184
4.24,0.13120755372269158,4.37535713567766,70.8412344145928
4.25,-0.02251359577121264,-4.069342574104967,72.47858617192912
4.26,0.1967559874282576,4.308077338452458,75.4416414751029
4.27,0.03028377484269311,-4.103525051727448,79.26772259473506
4.28,0.2101047566023394,4.339275631520596,83.4078492198007
4.29,0.07261022038306535,-3.9483474549015787,87.2555059848443
4.3,0.31972847957091854,4.316216023600668,90.19578699563932
4.31,0.1671806049795456,-3.8973450279727966,91.77800099247969
4.32,0.3968768387279255,4.260059096078019,92.29341918842012
4.33,0.23678015768819116,-3.9242026889618895,92.11362214332462
4.34,0.43052547744202896,4.264128438652124,91.68810246993193
4.35,0.23562902004797184,-3.8466138905489546,91.34049484941399
4.36,0.37830367564823286,4.250292673900168,91.21703421178174
4.37,0.14105863545149158,-3.7777063562941104,91.31772055703522
4.38,0.2634555587740429,4.17894353410086,91.27217197227769
4.39,0.0563836071084352,-3.81812849253022,90.93655082143276
4.4,0.17298056770526604,4.096200235094059,90.99168858192871
4.41,0.00011068631155955084,-3.7798766723336334,91.55265536262667
4.42,0.15208299208282286,4.140149134894393,92.28263136571438
4.43,-0.0474622903967354,-3.631210023626332,92.78726173894907
4.44,0.1149588031857495,4.067714837075324,93.04497083691929
4.45,-0.04281346531123426,-3.696048215307071,93.14685582914007
4.46,0.1254075909969711,3.7286029558999108,93.16843147455153
4.47,-0.055564528402894525,-3.7931698580757094,93.21398005930905
4.48,0.15265856090293253,3.795068884610292,93.09051942167682
4.49,-0.023089164591322306,-3.7120542960985503,92.78726173894907
4.5,0.10800770281980972,3.7286029558999108,92.29341918842012
4.51,-0.028313558496933105,-3.620087153923778,91.5646418322997
4.52,0.1358563788081927,3.64585965689311,90.3300354559773
4.53,-0.058464509765754756,-3.567456989965354,88.79337004389446
4.54,0.14338304799424217,3.700117557881176,86.9642347717896
4.55,-0.035862364945294475,-3.4377806066038756,85.09074956189454
4.56,0.13120755372269158,3.756817064413705,83.44141133488519
4.57,-0.02888912731704277,-3.2275312402751193,82.26314136602603
4.58,0.16485619243679503,3.8200275190648023,81.62306388548606
4.59,-0.023089164591322306,-3.2907416949262163,81.57871394769585
4.6,0.14048306663138194,3.5547063832331585,81.82563522296032
4.61,-0.0016381574110813524,-3.202030026810728,82.16245502077255
4.62,0.1219320408140012,3.603538494122418,82.29670348111053
4.63,-0.03991348394837403,-3.101381620477865,82.42016411874276
4.64,0.12425645335675177,3.6081504157064037,82.59996116383826
4.65,-0.019038045588242746,-2.9681784735521624,82.47650052620602
4.66,0.11438323436563984,3.5392428814515595,82.09413214363626
4.67,-0.026564714774292203,-2.979030053749776,81.72494887770685
4.68,0.1358563788081927,3.607065257686642,81.39891690260035
4.69,-0.035264658862872895,-2.738396262867702,81.08487139716688
4.7,0.11033211536256028,3.5045178248191973,80.70370166156442
4.71,-0.025413577134072874,-2.7370398153430004,80.20985911103546
4.72,0.14685859817721206,3.4309983689803674,79.749578675591
4.73,-0.03411352122265357,-2.63015175039651,79.22217400997754
4.74,0.11148325300277961,3.3875920481899144,78.75110575182734
4.75,-0.023089164591322306,-2.6119753535655077,78.26805102400411
4.76,0.13295639744533247,3.186566525029129,77.72985853568493
4.77,0.0024350988543101184,-2.626082407822405,77.23601598515596
4.78,0.16775617379965527,3.1426176252287954,76.83207195717475
4.79,0.03781044402874257,-2.447573913571667,76.63069926666779
4.8,0.14685859817721206,3.182497182455024,76.36100369902454
4.81,0.051734782022934064,-2.3157272141706664,76.03617037088534
4.82,0.19733155624836723,3.1993171317613247,75.66578845798863
4.83,0.012883886665531717,-2.2929388957556784,75.2954065450919
4.84,0.1428074791741325,3.011856083847556,75.0029366850699
4.85,-0.028313558496933105,-2.2373245472429106,74.7907761718572
4.86,0.08480785191692786,2.827650509993071,74.45395637404498
4.87,-0.055564528402894525,-2.3046043444681126,74.2070350987805
4.88,0.10335887773430857,2.6746432292067244,74.11713657623275
4.89,-0.04338903413134393,-2.283715052587707,73.92655170843152
4.9,0.09060781464264832,2.5862028505961763,73.53339550315604
4.91,-0.09791311120557868,-2.2356968102132684,73.2301378204283
4.92,0.21415587560541896,2.5647709797058904,73.09588936009033
4.93,0.6462973731962174,-1.8176396831002184,72.9053044922891
4.94,0.6636972613733788,2.6445300941583474,72.7255074471936
4.95,0.23330460750522125,-1.8824778747809574,72.47858617192912
4.96,-0.0422378964911246,2.410678540899782,72.19810278158015
4.97,-0.1060374864740497,-1.9364644862640834,72.01950438345196
4.98,0.06275913865426533,2.298364685854485,71.83970733835646
4.99,-0.06196219721103656,-1.9120484308194536,71.6706981159667
5.0,0.057534744748654526,2.1594644593250356,71.52566183292299
5.01,-0.0491889968570644,-1.8569766613165664,71.32309049544874
5.02,0.061608001014045996,2.016494890221481,71.14329345035324
5.03,-0.021340320868681404,-1.8482953971584757,70.95270858255202
5.04,0.08363457701439661,1.795936522704992,70.6614373694973
5.05,-0.04166232767101494,-1.7726056252801234,70.4037282715271
5.06,0.06855910137998579,1.8843769013155398,70.30184327930633
5.07,-0.032364677500012665,-1.501044830834852,70.2239312264316
5.08,0.08595898955714719,1.8699985575537024,69.95423565878836
5.09,-0.032364677500012665,-1.5067419104385988,69.74087649860837
5.1,0.10683442791727847,1.628008319146927,69.59584021556466
5.11,-0.001040451328659778,-1.4899219611322985,69.50594169301692
5.12,0.06623468883723523,1.5352273084573338,69.55029163080714
5.13,-0.00801368895691148,-1.2663794090614655,69.7528629682814
5.14,0.10103446519155801,1.5577443373673812,70.33540539439082
5.15,0.0035862364945294474,-1.1958441377769795,71.74980881580872
5.16,0.11553437200585917,1.2468465647057618,74.44196990437194
5.17,0.03608373756841358,-1.2734329361899142,78.05589051079141
5.18,0.15440740462557342,1.2370801425279099,82.06057002855177
5.19,0.10453215263683982,-1.0314426977831388,85.95377537835292
5.2,0.22690693869707923,1.192046084707815,89.19731407187567
5.21,0.1631073487141541,-1.121782102928269,91.2050477421087
5.22,0.2965286286680367,0.9945473251112538,92.25985707333562
5.23,0.25243120214271164,-0.9723015857061467,92.46242841080988
5.24,0.35105270574227143,0.8868453916499424,91.99136015265968
5.25,0.2553311835055719,-0.9012237354117799,91.46395548704622
5.26,0.31797963584827765,0.8903721552141667,91.19425991940298
5.27,0.2048803626967286,-0.722715241161042,91.22782203448747
5.28,0.21068032542244908,0.7368222954179393,91.2050477421087
5.29,0.05231035084304373,-0.650552232846914,91.127135689234
5.3,0.10915884046002904,0.6570631809654819,91.14871133464545
5.31,-0.0062648452342705776,-0.5444780364152445,91.55265536262667
5.32,0.05000807556260507,0.44084544552803806,92.19273284316664
5.33,-0.010913670319771713,-0.562925722751187,92.70934968607436
5.34,0.02738379347983288,0.16955594058770693,92.84359814641233
5.35,-0.01961361440835241,-0.60633204354164,92.91072237658132
5.36,0.02331053721444141,0.21757418296214553,93.07973159897108
5.37,-0.027737989676823442,-0.2636933988020018,93.18041794422456
5.38,0.02911049994016187,0.13130412039112024,92.95627096133884
5.39,0.003010667674419783,-0.3382980126605929,92.49599052589437
5.4,0.01693500566861128,-0.13510217346028489,91.92303727552338
5.41,-0.03816464022573313,-0.2579963191982549,91.19425991940298
5.42,0.021583830754112413,-0.26179437226741953,90.17301270326055
5.43,-0.04338903413134393,-0.21106323484357759,88.74782145913693
5.44,0.003010667674419783,-0.3917420451338381,86.87433624924185
5.45,-0.025989145954182537,-0.08816908910560761,84.81026617154556
5.46,0.016359436848501614,-0.5056836372087772,82.97034307673498
5.47,-0.03411352122265357,-0.13917151603438985,81.73573670041257
5.48,0.01578386802839195,-0.8350290962063391,81.17476991971462
5.49,-0.015540358142960939,-0.17091238811240858,81.02853498970362
5.5,0.003010667674419783,-0.9874937979828052,81.16278345004159
5.51,-0.019038045588242746,-0.08247200950186065,81.44446548735787
5.52,-0.004538138773941584,-0.9956324831310152,81.73573670041257
5.53,-0.0370135025855138,0.09983453781804184,81.8927594531293
5.54,-0.03006240221957401,-1.088142204315668,81.7800866382028
5.55,-0.034689090042763236,0.20590873424971132,81.69018811565505
5.56,-0.035264658862872895,-1.2959499650999617,81.67940029294932
5.57,-0.04976456567717406,0.29624813939484157,81.48881542514809
5.58,-0.027737989676823442,-1.2091373235190557,81.1292213349571
5.59,-0.0561622344853161,0.49184787245682027,80.63657743139544
5.6,-0.025989145954182537,-1.3485801290583859,80.15352270357221
5.61,-0.038762346308154706,0.6285777829467472,79.7160165605065
5.62,-0.01961361440835241,-1.3873745282648533,79.2449483023563
5.63,-0.01844033950582117,0.7606957718526884,78.7403179291216
5.64,-0.04861342803695473,-1.486395197568074,78.16736467875063
5.65,-0.05906221584817633,0.8966118138277943,77.63996001313717
5.66,-0.043964602951453595,-1.6914900633029644,77.2144403397445
5.67,-0.05266454704003429,0.8073575667024253,76.75415990430002
5.68,-0.046864584314313826,-1.7905107326061853,76.45090222157229
5.69,-0.030637971039683673,0.9256397908564097,76.15963100851758
5.7,0.00011068631155955084,-1.999946230420121,75.69935057307312
5.71,-0.009740395417240474,0.889829576204286,75.2954065450919
5.72,0.02911049994016187,-2.2153500973427436,75.0029366850699
5.73,0.048834800660073834,0.7669354304663161,74.75721405677271
5.74,0.01055947412278115,-2.371341562683434,74.45395637404498
5.75,-0.025989145954182537,0.9378478185787246,74.11713657623275
5.76,-0.03296238358243424,-2.3271213733781604,73.813878893505
5.77,-0.07528882912280649,1.1624755286693187,73.64606831808254
5.78,-0.08978873593710764,-2.5257052909944826,73.44349698060829
5.79,-0.0648621785738968,1.0604706748117543,73.16301359025931
5.8,-0.09211314847985821,-2.731885314749134,72.7590695622781
5.81,-0.08051322302841728,1.1369743152049276,72.36711200396992
5.82,-0.13156174991968214,-2.7557587911838834,72.22087707395892
5.83,-0.06428660975378712,1.2973064126246634,72.21008925125318
5.84,0.32495287347652935,-2.590000903665341,72.08662861362095
5.85,0.6346974477447764,1.6996287484511743,71.8169330459777
5.86,0.40962790181958575,-2.714522786432953,71.59278606309198
5.87,-0.056737803305425764,1.234909826488387,71.41298901799648
5.88,-0.25510981088245277,-3.312716144826383,71.25596626527975
5.89,-0.11011074273944117,1.2514584862897473,71.03181928239404
5.9,-0.12286180583110143,-3.3097319602720394,70.80767229950831
5.91,-0.07123771011972692,1.435664060144232,70.60510096203406
5.92,-0.12633735601407134,-3.291284273936097,70.44807820931732
5.93,-0.07761324166555705,1.5653404435057106,70.32461757168508
5.94,-0.11763741192549064,-3.3091893812621587,70.0441341813361
5.95,-0.07238884775994625,1.679010746075709,69.85354931353488
5.96,-0.12981290619704122,-3.430727079475427,69.84276149082915
5.97,-0.08921316711699798,1.6863355627090981,69.74087649860837
5.98,-0.1234373746512111,-3.5408706184812013,69.44960528555367
5.99,-0.048037859216845065,1.7275715674600285,69.12357331044717
6.0,-0.08458647929380875,-3.628225839071988,68.96655055773043
6.01,-0.07703767284544738,1.8827491642858978,68.85507638977123
6.02,-0.12461064955374233,-3.606793968181702,68.8095278050137
6.03,-0.046864584314313826,1.9890946502225075,68.68606716738147
6.04,-0.11706184310538097,-3.6217148909534203,68.5518187070435
6.05,-0.027737989676823442,2.1437296680384965,68.58538082212799
6.06,-0.08631318575413775,-3.5736966485789816,69.25902041775244
6.07,-0.038762346308154706,2.365644483079687,70.70578730728754
6.08,-0.08978873593710764,-3.5623024893714876,73.06232724500583
6.09,0.009386199220249912,2.435094596344412,76.36100369902454
6.1,0.0018595300342004542,-3.642061603823945,80.19787264136242
6.11,0.11438323436563984,2.4407916759481587,84.03594023066762
6.12,0.10045889637144835,-3.8818815261911976,87.26749245451734
6.13,0.20778034405958884,2.4367223333740538,89.56769598477239
6.14,0.16543176125690467,-3.852310970152702,90.54339461615729
6.15,0.26983109031987307,2.6892928624735024,90.56616890853604
6.16,0.2118314630626684,-3.7614289859976906,89.97164001275361
6.17,0.2704287964022946,2.738938841877583,89.27522612475038
6.18,0.11960762827125064,-3.969779325791865,88.79337004389446
6.19,0.13700751644841203,2.7649826343518544,88.56922306100873
6.2,0.022734968394331742,-3.888663763814706,88.36665172353447
6.21,0.06740796373976646,2.871056830783524,88.3774395462402
6.22,-0.07703767284544738,-4.13770752934993,88.60278517609322
6.23,-0.03296238358243424,2.850710117912999,89.07385343424343
6.24,-0.11531299938274006,-4.083992207371744,89.51135957730914
6.25,-0.032364677500012665,2.9155483095937385,89.63482021494137
6.26,-0.10431078001372071,-4.380782925776467,89.61204592256261
6.27,-0.024838008313963208,2.749519132570256,89.4993731076361
6.28,-0.13853498754793384,-4.390278058449378,89.37591247000385
6.29,-0.027737989676823442,2.9700775000867448,89.37591247000385
6.3,-0.09848868002568834,-4.40004448062723,89.55570951509935
6.31,-0.004538138773941584,3.1068074105766716,89.3207747095079
6.32,-0.13331059364232303,-4.443993380427564,88.50090018387245
6.33,-0.0370135025855138,3.1575385480005136,87.20036822434835
6.34,-0.12053739328835086,-4.4347695372595926,85.53904352766597
6.35,-0.028313558496933105,3.2752781931446173,83.6991204328554
6.36,-0.09558869866282811,-4.540843733691262,81.95988368329829
6.37,0.0018595300342004542,3.2549314802740925,80.56825455425916
6.38,-0.1234373746512111,-4.623044453688182,79.62611803795875
6.39,-0.001040451328659778,3.3607343872008215,79.17782407218732
6.4,-0.1182129807456003,-4.591574871115104,79.07593907996653
6.41,-0.013813651682631945,3.4581273194744004,79.35642247031551
6.42,-0.1234373746512111,-4.685441039824458,79.81670290575998
6.43,-0.01961361440835241,3.4489034763064295,80.10917276578199
6.44,-0.1095130366570196,-4.753263416059541,80.27698334120444
6.45,-0.021340320868681404,3.537343854916977,80.26619551849872
6.46,-0.12981290619704122,-4.761402101207751,80.26619551849872
6.47,-0.031213539859793336,3.668919264813038,80.20985911103546
6.48,-0.14838606927673387,-4.779307208533813,79.88382713592897
6.49,-0.005113707594051249,3.712325585603491,79.40197105507303
6.5,-0.14201053773090372,-4.911967776449635,79.1322754874298
6.51,-0.0422378964911246,3.759801248968049,78.86377856675385
6.52,-0.1304106122794628,-5.0020358920898245,78.4814101841841
6.53,-0.01728920186560184,3.7736370137200055,77.96599198824367
6.54,-0.16926150763686515,-5.0188558413961255,77.3594766227882
6.55,-0.009740395417240474,3.97357737886103,76.91118265701677
6.56,-0.08806202947677864,-4.947777991101758,76.57436285920453
6.57,0.012883886665531717,4.071241600639548,76.26031735377106
6.58,-0.08978873593710764,-5.115706194659824,75.83359903341109
6.59,0.043034837934353365,3.97357737886103,75.39609289034537
6.6,-0.0648621785738968,-5.191395966538176,75.09283520761764
6.61,0.08015902683142671,4.229945961029642,74.76800187947845
6.62,-0.09908638610810991,-5.059006688127295,74.40840778928745
6.63,0.0018595300342004542,4.413608955874246,74.05001234606377
6.64,-0.1489616380968435,-5.1319835649562435,73.80309107079928
6.65,-0.008589257777021145,4.46569654082279,73.63408184840952
6.66,-0.14723493163651452,-5.1319835649562435,73.61250620299806
6.67,-0.016713633045492178,4.595372924184269,73.51181985774458
6.68,-0.16693709509411458,-5.189768229508534,73.0851015373846
6.69,-0.0422378964911246,4.589947134085462,72.56848469447688
6.7,-0.24235874779079253,-5.318902033860131,72.26522701174913
6.71,0.12945871000005066,4.764928864771975,72.16454066649565
6.72,0.5732222703046019,-5.034590632682664,72.13097855141116
6.73,0.6642949674558003,5.061990872681638,71.98474362140017
6.74,0.08770783327978808,-5.262745106337483,71.68268458563973
6.75,-0.11591070546516165,4.846044426749135,71.33507696512177
6.76,-0.25685865460509366,-5.490357000982421,71.0545935747728
6.77,0.008810630400140247,4.906813275855769,70.96469505222505
6.78,-0.153034894362235,-5.602670856027718,70.90835864476179
6.79,-0.005113707594051249,4.954288939220326,70.67222519220304
6.8,-0.17506147036258562,-5.607825356621584,70.5487645545708
6.81,-0.013238082862522281,4.9513047546659825,70.4372903866116
6.82,-0.1704347825393964,-5.71905405364712,70.15680699626262
6.83,-0.00916482659713081,4.992540759416913,69.8978992513251
6.84,-0.153034894362235,-5.911669602154755,69.61741586097612
6.85,0.014035024305751046,5.013972630307199,69.4603931082594
6.86,-0.1437372441912327,-5.992785164131914,69.33693247062716
6.87,0.02621051857730164,4.9461502540721165,69.26980824045818
6.88,-0.1234373746512111,-5.978949399379957,69.15833407249896
6.89,-0.001040451328659778,5.106482351491852,68.9557627350247
6.9,-0.14723493163651452,-6.032122142348262,68.65250505229697
6.91,0.0459348192972136,5.307507874652638,68.518256591959
6.92,-0.15243718827981342,-6.105099019177211,68.57459299942225
6.93,0.02621051857730164,5.221237812081612,69.02288696519369
6.94,-0.1182129807456003,-6.031579563338381,70.05492200404184
6.95,0.06391027629448466,5.503650186724497,71.8169330459777
6.96,-0.08108879184852695,-6.078512647693058,74.52108060421396
6.97,0.14105863545149158,5.547870376029771,78.07746615620287
6.98,0.0018595300342004542,-6.096417755019121,82.09413214363626
6.99,0.21068032542244908,5.619490805334018,85.7631905105517
7.0,0.07493463292581592,-6.163154973234442,88.5572365913357
7.01,0.28317985949395486,5.76029005839805,90.00520212783809
7.02,0.14048306663138194,-6.1539311300664705,90.4762703859883
7.03,0.33712836774807997,5.716883737607597,90.24013693342954
7.04,0.16138064225382512,-6.2567498524388565,89.62283374526834
7.05,0.307552985299368,5.831367908692417,88.98395491169568
7.06,0.06681025765734488,-6.24345666669678,88.56922306100873
7.07,0.2170558569682792,5.947208527301939,88.42298813099772
7.08,-0.058464509765754756,-6.396463947483126,88.60278517609322
7.09,0.11785878454860974,5.999838691260362,89.15176548711814
7.1,-0.11881068682802187,-6.352515047682793,89.43224887746712
7.11,0.06971023902020512,6.2141574001632245,89.60125809985688
7.12,-0.15651044454520488,-6.429289977580907,89.6791701527316
7.13,0.041285994211712466,6.0855661748215075,89.79184296765811
7.14,-0.14548608791387363,-6.567647625100475,90.04955206562832
7.15,0.03608373756841358,6.2274505859053,90.24013693342954
7.16,-0.16868593881675548,-6.515017461142051,90.24013693342954
7.17,0.061608001014045996,6.247797298775826,90.00520212783809
7.18,-0.14201053773090372,-6.575786310248685,89.63482021494137
7.19,0.043034837934353365,6.386697525305275,89.16375195679117
7.2,-0.1443349502736543,-6.692169507868088,88.46733806878795
7.21,0.04478368165699427,6.356584390256898,87.41252873756105
7.22,-0.1663615262740049,-6.757007699548827,85.89863761785696
7.23,0.06565912001712557,6.525055172824843,84.02395376099459
7.24,-0.15128605063959408,-6.794716940735532,82.30749130381625
7.25,0.061608001014045996,6.459674402134224,80.89428652936566
7.26,-0.15766158218542423,-6.963730302313359,79.83947719813874
7.27,0.04708595693743293,6.469440824312076,79.28929824014652
7.28,-0.1391105563680435,-6.997912779935841,79.35642247031551
7.29,0.06855910137998579,6.526954199359426,79.80591508305424
7.3,-0.15708601336531455,-6.925478482116772,80.24342122611995
7.31,0.06855910137998579,6.7247242484609275,80.41123180154241
7.32,-0.17796145172544584,-7.019887229836008,80.19787264136242
7.33,0.03781044402874257,6.562221835001669,80.1870848186567
7.34,-0.16926150763686515,-7.157702298345696,80.23263340341423
7.35,0.05811031356876419,6.668024741928398,80.16431052627794
7.36,-0.18841023953666744,-7.216300831412807,79.90660142830772
7.37,0.040134856571493134,6.745070961331452,79.58176810016853
7.38,-0.18841023953666744,-7.106157292407032,79.12148766472406
7.39,0.0441859755745727,6.961559986273836,78.61685729148937
7.4,-0.16578595745389524,-7.078485762903119,78.05589051079141
7.41,0.05521033220590396,7.024770440924933,77.61838436772571
7.42,-0.19305906462216857,-7.166926141513667,77.29235239261921
7.43,0.05695917592854486,7.049186496369563,76.87762054193227
7.44,-0.1611371323683941,-7.174522247651996,76.39456581410903
7.45,0.07841018310878582,7.064107419141282,75.87914761816862
7.46,-0.15243718827981342,-7.181575774780445,75.56510211273515
7.47,0.13468310390566146,7.20246506666085,75.23907013762864
7.48,-0.12751063091660256,-7.144409112603619,74.84591393235316
7.49,0.12830757235983134,7.368222954179393,74.4983063118352
7.5,-0.1008130925684389,-7.0958482912193,74.31850926673971
7.51,0.09118338346275798,7.35764266348672,74.12792439893848
7.52,-0.15593487572509523,-7.181033195770564,73.83665318588378
7.53,0.06275913865426533,7.461275254373926,73.43270915790256
7.54,-0.2029101463509686,-7.282224181113308,73.02876512992134
7.55,0.04708595693743293,7.3514030048730925,72.74828173957238
7.56,-0.21278336534208053,-7.334311766061852,72.68115750940339
7.57,0.018683849391252182,7.388298377544977,72.6475953943189
7.58,-0.21045895279932997,-7.334854345071732,72.23166489666464
7.59,-0.020764752048571738,7.49708546902605,71.86128298376792
7.6,-0.10371307393129914,-7.26730325834159,71.6706981159667
7.61,0.6932947810844027,7.80879711020249,71.4920997178385
7.62,0.3934012885449556,-7.068719340725267,71.30031620306997
7.63,0.34407946811401974,7.784923633767741,71.13250562764752
7.64,-0.29688282486502726,-7.363339743090466,71.04260710509976
7.65,-0.02251359577121264,7.7114041779289115,70.8747965296773
7.66,-0.21451007180240952,-7.398064799722829,70.75133589204506
7.67,0.0459348192972136,7.675593963276788,70.4372903866116
7.68,-0.2098612467169084,-7.355743636952138,70.14482052658958
7.69,0.02911049994016187,7.752097603669961,70.01057206625161
7.7,-0.19478577108249756,-7.370935849228796,70.0776962964206
7.71,0.06218356983415566,7.897780067822919,69.94344783608263
7.72,-0.21278336534208053,-7.297958972399847,69.61741586097612
7.73,0.0511592132028244,7.944170573167716,69.29258253283693
7.74,-0.18435912053358788,-7.43170469833543,69.12357331044717
7.75,0.08073459565153639,7.888556224654947,69.04566125757245
7.76,-0.17158592017961571,-7.4976280480359305,68.92220061994021
7.77,0.07088351392273635,7.93901607257385,68.79873998230796
7.78,-0.1855102581738072,-7.444997884077506,68.65250505229697
7.79,0.06623468883723523,8.041563505441294,68.52904441466472
7.8,-0.19131022089952768,-7.5109212337780065,68.41757024670552
7.81,0.10045889637144835,7.992188815542154,68.54103088433776
7.82,-0.1733347639022566,-7.53018278862877,69.03487343486673
7.83,0.11903205945114098,8.050787348609266,70.4037282715271
7.84,-0.16463481981367592,-7.663114646049532,72.7255074471936
7.85,0.13643194762830238,7.904291015941487,76.10329460105433
7.86,-0.09966195492821958,-7.664471093574234,80.08639847340322
7.87,0.20720477523947917,8.11209877672578,84.00237811558313
7.88,-0.024240302231541635,-7.693227781097909,87.3573909770651
7.89,0.2710043652224043,8.04671800603516,89.58927163018384
7.9,0.03318375620555334,-7.6916000440682675,90.75675377633728
7.91,0.3678770250993232,8.1438396488038,90.99168858192871
7.92,0.12250760963411088,-7.575759425458746,90.63329313870503
7.93,0.36497704373646295,8.25913768840344,89.92609142799608
7.94,0.09988332755133868,-7.574131688429104,89.13018984170668
7.95,0.3261040111167487,8.197283681277044,89.01751702678017
7.96,-0.027162420856713776,-7.691057465058386,89.09542907965489
7.97,0.18225608061395643,8.210576867019121,89.52214740001486
7.98,-0.10661305529415938,-7.725239942680869,90.17301270326055
7.99,0.1167076469083904,8.321805564044656,90.55418243886301
8.0,-0.18203470799083732,-7.588510032190942,90.80110371412749
8.01,0.10393444655441825,8.300916272164251,91.08158710447647
8.02,-0.1652103886337856,-7.752911472184782,91.19425991940298
8.03,0.0790078891912074,8.338625513350957,91.32850837974095
8.04,-0.18666139581402655,-7.57874361001309,91.44118119466746
8.05,0.09003224582253866,8.43005007651585,91.54186753992094
8.06,-0.15941042590806512,-7.615096403675094,91.51909324754217
8.07,0.07551020174592558,8.460705790574107,91.28415844195072
8.08,-0.182610276810947,-7.71004773040421,90.82387800650625
8.09,0.10568329027705914,8.288708244441937,90.09510065038585
8.1,-0.17448590154247595,-7.662572067039652,89.20810189458139
8.11,0.10510772145694948,8.493803110176826,87.90637128809
8.12,-0.16753480117653616,-7.580371347042732,86.24624523837493
8.13,0.14628302935710238,8.549960037699474,84.40632214356434
8.14,-0.15823715100553387,-7.537507605262159,82.70064750909174
8.15,0.11960762827125064,8.515777560076993,81.30901838005259
8.16,-0.15533716964267366,-7.638427301099963,80.42321827121545
8.17,0.1132320967254205,8.482680240474274,80.01927424323424
8.18,-0.1652103886337856,-7.590409058725524,79.99649995085548
8.19,0.11613207808828074,8.609372439281408,80.3668818637522
8.2,-0.15941042590806512,-7.549715632984475,80.81517582952364
8.21,0.1149588031857495,8.516862718096755,81.01774716699789
8.22,-0.16403711373125435,-7.632458931991275,80.93863646715587
8.23,0.08653455837725685,8.49651600522623,80.68092736918567
8.24,-0.18318584563105664,-7.682376200900296,79.97372565847671
8.25,0.1306319849025819,8.341338408400361,79.36840893998854
8.26,-0.17681031408522652,-7.7819394492133975,79.21138618727181
8.27,0.09350779600550856,8.25913768840344,79.08792554963956
8.28,-0.17448590154247595,-7.819648690400103,78.79545568961755
8.29,0.08770783327978808,8.287623086422174,78.32438743146736
8.3,-0.18203470799083732,-7.748299550600796,77.98756763365513
8.31,0.09350779600550856,8.268904110581293,77.61838436772571
8.32,-0.18725910189644812,-7.836468639706404,76.95553259480698
8.33,0.08538342073703752,8.193214338702939,76.28309164614983
8.34,-0.18783467071655777,-7.7767849486195315,75.93428537866457
8.35,0.1132320967254205,8.237705817513154,75.65380198831559
8.36,-0.16346154491114467,-7.739618286442706,75.27263225271314
8.37,0.14048306663138194,8.181548889990506,74.75721405677271
8.38,-0.15418603200245432,-7.7900781343616075,74.40840778928745
8.39,0.15440740462557342,8.28409632285795,74.12792439893848
8.4,-0.11241301801987984,-7.616995430209676,73.88100312367399
8.41,0.12773200353972167,8.281654717313488,73.53339550315604
8.42,-0.17681031408522652,-7.717101257532659,73.18578788263808
8.43,0.06391027629448466,8.192129180683178,72.9388666073736
8.44,-0.2116100904395493,-7.7165586785227775,72.7255074471936
8.45,0.0598591572914051,8.049702190589505,72.43423623413891
8.46,-0.23655878506507205,-7.790620713371489,72.1429650210842
8.47,0.06101029493162442,8.101247196528167,71.91761939123118
8.48,-0.2324855287996806,-7.761050157332992,71.6706981159667
8.49,-0.005113707594051249,7.92382386029719,71.40220119529076
8.5,-0.11531299938274006,-7.926808044851534,71.16606774273201
8.51,0.7686942965187686,8.049702190589505,71.07616922018425
8.52,0.4079011953592568,-7.674780094761966,70.95270858255202
8.53,0.295953059847927,7.901306831387143,70.6949994845818
8.54,-0.34850692057640176,-7.979980787819839,70.33540539439082
8.55,-0.038762346308154706,7.750198577135379,70.14482052658958
8.56,-0.23480994134243116,-7.914057438119339,70.15680699626262
8.57,0.04708595693743293,7.831314139112538,70.11125841150509
8.58,-0.23480994134243116,-7.821819006439626,69.74087649860837
8.59,0.028534931120052207,7.869023380299244,69.39326887809041
8.6,-0.2499075542391539,-7.7569808147588875,69.20268401028919
8.61,0.016359436848501614,7.853288589012704,69.11278548774143
8.62,-0.21798562198537944,-7.773800764065188,68.96655055773043
8.63,0.043034837934353365,7.858985668616452,68.78795215960224
8.64,-0.22610999725385045,-7.650635328822277,68.61894293721248
8.65,0.04941036948018349,7.852203430992944,68.35044601653654
8.66,-0.23190995997957092,-7.789535555351727,68.11431256397778
8.67,0.04651038811732326,7.71031901990915,68.00163974905126
8.68,-0.22958554743682036,-7.7518263141650205,67.91293987347082
8.69,0.08015902683142671,7.66094433001001,67.68759424361781
8.7,-0.2081345402565794,-7.7900781343616075,67.65403212853332
8.71,0.055808038288325534,7.560295923677147,67.84461699633454
8.72,-0.1855102581738072,-7.74260247099705,68.30489743177901
8.73,0.09175895228286765,7.812866452776595,69.3489189403002
8.74,-0.16346154491114467,-7.662029488029772,71.23319197290098
8.75,0.1236587472743302,7.740432154957527,74.29693362132825
8.76,-0.1373617126454026,-7.616995430209676,78.36993601622488
8.77,0.16775617379965527,7.7246973636709875,82.52085046399624
8.78,-0.05036227175959563,-7.486776467838317,85.89863761785696
8.79,0.30115531649122596,7.911073253564995,88.36665172353447
8.8,0.06391027629448466,-7.412985722494548,89.76906867527934
8.81,0.3568526684679919,7.896152330793277,90.08311418071281
8.82,0.07551020174592558,-7.5079370492236635,89.61204592256261
8.83,0.36150149355349304,7.831856718122419,88.87128209676916
8.84,0.061608001014045996,-7.504681575164379,88.4457624233765
8.85,0.28435313439648613,7.703265492780702,88.29952749336549
8.86,-0.0491889968570644,-7.512820260312589,88.265965378281
8.87,0.17008058634240583,7.705164519315284,88.34387743115572
8.88,-0.14491051909376396,-7.575759425458746,88.56922306100873
8.89,0.10335887773430857,7.648465012782755,88.77059575151569
8.9,-0.19653461480513848,-7.494101284471706,88.8832685664422
8.91,0.06218356983415566,7.713303204463494,89.05107914186466
8.92,-0.2168344843451601,-7.463988149423329,89.44423534714015
8.93,0.05811031356876419,7.664471093574234,89.75828085257362
8.94,-0.21915889688791065,-7.436316619919416,89.83619290544833
8.95,0.0650835511970159,7.721984468621584,89.77985649798508
8.96,-0.2081345402565794,-7.359812979526242,89.79184296765811
8.97,0.07610790782834716,7.8348409026767625,89.54492169239363
8.98,-0.18318584563105664,-7.269473574381112,89.08464125694915
8.99,0.06913467020009545,7.740974733967407,88.43377595370346
9.0,-0.18493468935369756,-7.403219300316695,87.15481963959083
9.01,0.08305900819428695,7.729851864264854,85.34845865986475
9.02,-0.19943459616799872,-7.337838529626076,83.58644761792888
9.03,0.09523450246583755,7.813951610796357,81.95988368329829
9.04,-0.1802858642681964,-7.387755798535096,80.5131167937632
9.05,0.08073459565153639,7.598547743873734,79.49186957762078
9.06,-0.18318584563105664,-7.4270927767514445,78.93090279692284
9.07,0.06043472611151476,7.699738729216477,78.89734068183834
9.08,-0.1889858083567771,-7.297958972399847,79.06515125726081
9.09,0.10103446519155801,7.798216819509817,79.58176810016853
9.1,-0.19478577108249756,-7.2786974175490835,79.895813605602
9.11,0.06391027629448466,7.786008791787503,79.99649995085548
9.12,-0.16983707645697482,-7.309353131607341,80.0072877735612
9.13,0.08713226445967842,7.810424847232133,80.03006206593997
9.14,-0.20233457753085893,-7.2580794151736185,79.87303931322323
9.15,0.08770783327978808,7.813951610796357,79.36840893998854
9.16,-0.20233457753085893,-7.340822714180419,78.71754363674285
9.17,0.051734782022934064,7.6696255941681,78.25726320129837
9.18,-0.20233457753085893,-7.400506405267292,78.06667833349715
9.19,0.07725904546856649,7.629746036941872,77.7969827658539
9.2,-0.18841023953666744,-7.398607378732709,77.3594766227882
9.21,0.09175895228286765,7.5545988440734,76.89919618734373
9.22,-0.13446173128254235,-7.427635355761325,76.45090222157229
9.23,0.13525867272577113,7.574131688429104,76.08052030867557
9.24,-0.12461064955374233,-7.352216873387913,75.72212486545187
9.25,0.128883141179941,7.702722913770821,75.27263225271314
9.26,-0.154761600822564,-7.28412320764789,74.77878970218417
9.27,0.09350779600550856,7.70977644089927,74.47673066642373
9.28,-0.17273705781983503,-7.461275254373926,74.30772144403397
9.29,0.03665930638852324,7.567349450805596,73.97090164622175
9.3,-0.2342343725223215,-7.321561159329656,73.49983338807155
9.31,0.03028377484269311,7.676679121296549,73.0851015373846
9.32,-0.2359832162449624,-7.327529528438343,72.88253019991033
9.33,0.055808038288325534,7.588238742686001,72.68115750940339
9.34,-0.2667097363338937,-7.410815406455025,72.36711200396992
9.35,0.02331053721444141,7.544832421895548,72.01950438345196
9.36,0.1341075350855518,-7.115381135575004,71.90683156852545
9.37,0.7657943151559085,8.032339662273323,71.8169330459777
9.38,0.3411794867511595,-6.981635409639421,71.62634817817647
9.39,0.08885897092000741,7.8001158460444,71.33507696512177
9.4,-0.3693823589365331,-7.286293523687413,71.08815568985729
9.41,0.0070617866774993435,7.72605381119569,70.82924794491977
9.42,-0.22263444707088056,-7.243972360916721,70.61588878473978
9.43,0.0407104253916028,7.72659639020557,70.47085250169609
9.44,-0.24873427933662265,-7.325630501903761,70.23471904913734
9.45,0.024483812116972647,7.5887813216958815,70.01057206625161
9.46,-0.22321001589099024,-7.328072107448223,69.88711142861938
9.47,0.0459348192972136,7.621607351793662,69.83077502115611
9.48,-0.2342343725223215,-7.2735429169552175,69.55029163080714
9.49,0.03608373756841358,7.623506378328244,69.3153568252157
9.5,-0.2116100904395493,-7.329699844477866,69.19189618758345
9.51,0.06101029493162442,7.514719286847171,69.10199766503571
9.52,-0.21625891552505044,-7.382872587446171,68.88863850485572
9.53,0.06798353255987613,7.483249704274093,68.68606716738147
9.54,-0.19943459616799872,-7.462902991403568,68.58538082212799
9.55,0.07958345801131705,7.348961399328629,68.52904441466472
9.56,-0.1721614889997254,-7.494101284471706,68.49548229958023
9.57,0.043034837934353365,7.373377454773259,68.50746876925326
9.58,-0.18666139581402655,-7.376090349822662,68.82151427468673
9.59,0.09988332755133868,7.499527074570513,69.84276149082915
9.6,-0.1478105004566242,-7.312879895171565,72.12019072870544
9.61,0.13990749781127226,7.494915152986527,75.33975648288212
9.62,-0.09211314847985821,-7.369036822694214,78.99802702709182
9.63,0.23793129532841048,7.420853118137817,82.66708539400724
9.64,0.0012618239517788797,-7.324002764874119,85.97654967073167
9.65,0.3069552792169464,7.518517339916336,88.43377595370346
9.66,0.09583220854825912,-7.246413966461184,89.73550656019485
9.67,0.39050130718209536,7.62866087892211,89.81461726003687
9.68,0.12483202217686144,-7.090151211615553,89.36512464729813
9.69,0.3707770064621834,7.64493824921853,88.8497064513577
9.7,0.06740796373976646,-7.168282589038369,88.51288665354548
9.71,0.2634555587740429,7.440928541503402,88.40021383861897
9.72,-0.05498895958278486,-7.234205938738869,88.28873967065977
9.73,0.16890731143987459,7.344892056754524,88.32230178574426
9.74,-0.13793728146551226,-7.282766760123188,88.45655024608222
9.75,0.10800770281980972,7.3698506912090345,88.77059575151569
9.76,-0.19653461480513848,-7.296602524875145,89.05107914186466
9.77,0.0790078891912074,7.318848264280253,89.23087618696016
9.78,-0.2011613026283277,-7.369036822694214,89.3543368245924
9.79,0.06043472611151476,7.255095230619275,89.60125809985688
9.8,-0.20175900871074928,-7.3991499577425905,89.86975502053282
9.81,0.09408336482561822,7.248855572005647,89.77985649798508
9.82,-0.1855102581738072,-7.287378681707174,89.47779746222464
9.83,0.07725904546856649,7.251025888045169,89.08464125694915
9.84,-0.192461358539747,-7.297958972399847,88.5572365913357
9.85,0.08828340209989775,7.11972176765405,87.63787436741406
9.86,-0.18435912053358788,-7.2786974175490835,86.18990883091166
9.87,0.07610790782834716,7.214130515373284,84.27087503625907
9.88,-0.18841023953666744,-7.255095230619275,82.35303988857378
9.89,0.08828340209989775,7.1075137399317345,80.69171519189139
9.9,-0.1773858829053362,-7.1281317423071995,79.49186957762078
9.91,0.10103446519155801,7.326986949428463,78.82901780470205
9.92,-0.16926150763686515,-7.006594044093931,78.84100427437508
9.93,0.08480785191692786,7.152005218741949,79.15504977980855
9.94,-0.1652103886337856,-7.060038076567176,79.52543169270527
9.95,0.07493463292581592,7.2911767347763385,79.95215001306525
9.96,-0.17796145172544584,-6.958033222709612,80.17629699595098
9.97,0.08713226445967842,7.3514030048730925,80.13074841119345
9.98,-0.1802858642681964,-6.832426181922239,80.0072877735612
9.99,0.09233452110297731,7.315864079725909,79.82868937543302
