time_s,ECG,NIBP
0.0,-0.2563156999871573,-120.85480176168647
0.01,-0.2655280419828251,35.977077670162345
0.02,-0.272685323071767,-121.60786685809094
0.03,-0.2801260608374987,37.67754724268858
0.04,-0.28671642857286106,-122.38522437696008
0.05,-0.19834880958364756,37.313160905718675
0.06,0.13931895664217617,-123.16258189582922
0.07,0.38528848792650655,39.15938501303288
0.08,0.1383977224426094,-124.40149544152692
0.09,-0.21422238348387518,41.46716514717564
0.1,-0.2972751897832803,-126.46635135102306
0.11,-0.25879594590906785,41.95301359646885
0.12,-0.2589376742474627,-128.09394365615532
0.13,-0.26963816379627686,42.77895596026731
0.14,-0.268220880412328,-127.70526489672076
0.15,-0.26566977032121997,42.4145696232974
0.16,-0.2659532269980098,-128.14252850108466
0.17,-0.258016440047896,43.99357708350034
0.18,-0.2531268123732723,-128.87130117502446
0.19,-0.2480954563602537,43.60489832406577
0.2,-0.2456860746075406,-131.6892221809251
0.21,-0.23484385672033156,47.73461014305807
0.22,-0.2290329948461411,-132.78238119183482
0.23,-0.21741127109776018,48.7063070416445
0.24,-0.2060021398569716,-135.40596281801817
0.25,-0.193955231093406,49.410787293119654
0.26,-0.17652264547083463,-135.77034915498808
0.27,-0.15575944389598334,51.01408717578725
0.28,-0.13230340389162915,-135.67317946512944
0.29,-0.09949329355321229,51.9129068069797
0.3,-0.059667630464248396,-137.73803537462558
0.31,-0.020763201574851283,53.6376688019706
0.32,0.012826414624737482,-138.5396853159594
0.33,0.041668131488097455,54.19639451865779
0.34,0.051447386837344816,-139.85147612905106
0.35,0.04393578490241568,54.87658234766829
0.36,0.016511351423004604,-140.36161700080893
0.37,-0.03217233281563987,56.11549589336598
0.38,-0.09368243167902182,-142.30501079798177
0.39,-0.1464762377311181,57.524456396316296
0.4,-0.18481375326693564,-144.90430000170045
0.41,-0.21670262940578575,57.71879577603358
0.42,-0.2363320042734779,-144.36986670747794
0.43,-0.24703249382229203,59.83223653045905
0.44,-0.2480954563602537,-146.6047695742267
0.45,-0.24639471629951504,62.480110579107055
0.46,-0.24136336028649646,-147.40641951556051
0.47,-0.240016941071745,62.16430908706647
0.48,-0.23512731339712134,-146.3618453495801
0.49,-0.23541077007391112,62.480110579107055
0.5,-0.2328596599828031,-148.30523914675294
0.51,-0.23222188246002612,63.961948349451355
0.52,-0.23300138832119802,-150.37009505624908
0.53,-0.233639165843975,64.66642860092651
0.54,-0.23852879351859868,-151.36608437730018
0.55,-0.23881225019538846,65.83246487923022
0.56,-0.24263891533205048,-151.80334798166407
0.57,-0.24504829708476358,68.5532161952722
0.58,-0.24979619642099238,-154.57268414263538
0.59,-0.2558905149719726,69.20911160181804
0.6,-0.2574495266943164,-155.00994774699927
0.61,-0.2600006367854244,70.10793123301049
0.62,-0.2606384143082014,-155.13140985932256
0.63,-0.265031992798443,71.17679782145555
0.64,-0.26992162047306667,-156.5160779398082
0.65,-0.2728270514101619,72.26995683236528
0.66,-0.27254359473337214,-158.53234900437505
0.67,-0.27098458301102835,73.80037944763889
0.68,-0.27403174228651844,-158.60522627176903
0.69,-0.27984260416070894,74.67490665636667
0.7,-0.2847322318353326,-160.28140342183062
0.71,-0.28274803509780416,77.54141250719663
0.72,-0.2845905034969377,-163.65805014441844
0.73,-0.2836692692973709,77.39565797240866
0.74,-0.28593692271168913,-162.46772144365008
0.75,-0.28714161358804574,79.4119290369755
0.76,-0.28912581032557416,-166.16016965827848
0.77,-0.28714161358804574,80.96664407471377
0.78,-0.29309420380063106,-166.5731408401777
0.79,-0.28976358784835116,80.18928655584463
0.8,-0.2885588969719946,-168.054978610522
0.81,-0.2894801311715614,83.93031961540237
0.82,-0.29529099304575185,-169.5368163808663
0.83,-0.29833815232124195,84.17324384004897
0.84,-0.3003223490587704,-172.28186011937296
0.85,-0.29451148718458,87.98715416700068
0.86,-0.28487396017372746,-171.94176620486772
0.87,-0.27204754554899,89.54186920473896
0.88,-0.2563156999871573,-175.2212432375969
0.89,-0.2558905149719726,89.42040709241566
0.9,-0.26751223872035357,-175.09978112527358
0.91,-0.28841716863359973,89.68762373952693
0.92,-0.3024482741346938,-176.144355291254
0.93,-0.3135739486986926,92.79705381500348
0.94,-0.31924308223448816,-178.96227629715463
0.95,-0.3343371502735438,93.81733555851923
0.96,-0.3082591360088842,-180.56557617982222
0.97,-0.08149379457706135,95.39634301872216
0.98,0.26120532766178095,-181.58585792333795
0.99,0.19593942783093446,98.48148067173406
1.0,-0.2090492991324617,-184.67099557634987
1.01,-0.38408379705015,99.16166850074455
1.02,-0.352053192572905,-185.76415458725958
1.03,-0.3364630753494672,99.52605483771447
1.04,-0.35276183426487945,-184.79245768867315
1.05,-0.36211590459894216,100.54633658123021
1.06,-0.3642418296748655,-187.56179384964446
1.07,-0.3682102231499224,103.33996516466618
1.08,-0.36955664236467384,-190.03962094103986
1.09,-0.36877713650350197,105.74491498866757
1.1,-0.36211590459894216,-190.76839361497966
1.11,-0.3602734361998086,107.42109213872916
1.12,-0.35963565867703157,-192.5417404548999
1.13,-0.3564467710631466,107.34821487133517
1.14,-0.3524783775880897,-193.7806540005976
1.15,-0.3442581339611861,108.46566630470957
1.16,-0.33462060695033363,-193.95070095785022
1.17,-0.3288097450761432,110.84632370624631
1.18,-0.3100307402388203,-195.91838717748772
1.19,-0.2880628477876125,109.43736320329599
1.2,-0.2631895243993094,-196.50140531663956
1.21,-0.22889126650774622,111.67226607004477
1.22,-0.19452214444698557,-197.7160264398726
1.23,-0.16128684909338403,113.61565986721762
1.24,-0.13322463809119595,-198.4690915362771
1.25,-0.11565032413022966,113.71282955707625
1.26,-0.11671328666819134,-200.26673079866197
1.27,-0.13733475990464772,116.093486958613
1.28,-0.17701869465521672,-201.35988980957168
1.29,-0.2363320042734779,115.53476124192579
1.3,-0.29507840053815954,-201.01979589506644
1.31,-0.34836825577463787,116.31211876079495
1.32,-0.3881939188636018,-203.86200932343172
1.33,-0.41731909240375153,118.59560647247304
1.34,-0.430145507028489,-203.76483963357308
1.35,-0.43765710896341814,119.6644730609181
1.36,-0.44233414413044947,-205.90257281046323
1.37,-0.4391452565165645,120.9519714515451
1.38,-0.43794056564020795,-207.11719393369626
1.39,-0.4347516780263229,123.30833643061719
1.4,-0.4356729122258897,-208.52615443664658
1.41,-0.43673587476385134,123.40550612047583
1.42,-0.4407042682389083,-210.76105730339535
1.43,-0.4407042682389083,125.44606960750733
1.44,-0.4467985867898885,-211.78133904691109
1.45,-0.4490662402042067,126.73356799813433
1.46,-0.4539558678788304,-211.7084617795171
1.47,-0.45608179295475376,128.45832999312523
1.48,-0.46111314896777233,-214.62355247527637
1.49,-0.46812870171831933,130.03733745332818
1.5,-0.4693333925946759,-217.49005832610632
1.51,-0.4731600577313379,130.62035559248002
1.52,-0.47975042546670027,-215.86246602097407
1.53,-0.48464005314132397,133.413984175916
1.54,-0.4873328915708268,-219.0447733638446
1.55,-0.49604918438211254,134.77435983393698
1.56,-0.49363980262939944,-221.35255349798737
1.57,-0.49803338111964096,136.79063089850382
1.58,-0.4968286902432844,-221.40113834291668
1.59,-0.4961909127205074,137.7137429521609
1.6,-0.4972538752584691,-224.46198357346393
1.61,-0.5007970837183413,139.5842594819398
1.62,-0.5027812804558698,-226.2596228358488
1.63,-0.5034190579786468,140.99321998489012
1.64,-0.50249782377908,-226.52683948296007
1.65,-0.5022852312714877,142.0377941508705
1.66,-0.5014348612411184,-229.07754384174942
1.67,-0.5003010345339592,144.19981975022532
1.68,-0.5032064654710544,-229.97636347294187
1.69,-0.5000175778571694,145.6087802531756
1.7,-0.49959239284198476,-231.1909845961749
1.71,-0.49526967852094067,148.47528610400556
1.72,-0.4972538752584691,-233.66881168757027
1.73,-0.48414400395694185,148.79108759604617
1.74,-0.4678452450415296,-236.89970387537014
1.75,-0.4548771020783972,150.5401420135017
1.76,-0.4455230317443345,-237.555599281916
1.77,-0.45941240890703366,152.87221457010915
1.78,-0.4739395635925098,-238.86739009500764
1.79,-0.48464005314132397,153.2608933295437
1.8,-0.4898131374927374,-240.78649146971583
1.81,-0.4928602967682275,155.1799947042519
1.82,-0.5042694280090161,-240.8107838921805
1.83,-0.459625001414626,157.29343545867738
1.84,-0.20217547472030958,-242.58413073210073
1.85,0.13074439216928538,158.4351793145164
1.86,-0.006094318550980239,-244.79474117638483
1.87,-0.42433464515429853,159.94130950732537
1.88,-0.5394180559309487,-245.96077745468855
1.89,-0.47039635513263756,161.56890181245763
1.9,-0.4540975962172253,-247.7827091395381
1.91,-0.47528598280726125,163.14790927266057
1.92,-0.47287660105454815,-249.8718574714989
1.93,-0.46706573918035765,164.96984095751012
1.94,-0.4599084580914158,-252.34968456289428
1.95,-0.45608179295475376,166.62172568510704
1.96,-0.4494914252193914,-252.9569951245108
1.97,-0.4435388350068061,168.83233612939114
1.98,-0.43609809724107435,-256.3822266920279
1.99,-0.42525587935386533,169.92549514030088
2.0,-0.41689390738856685,-256.13930246738136
2.01,-0.4037131719178422,171.60167229036244
2.02,-0.38968206641674813,-258.2041583768775
2.03,-0.37338330750133586,173.0592176382421
2.04,-0.3561633143863568,-260.098967329121
2.05,-0.33844727208699565,175.87713864414272
2.06,-0.311731480299559,-261.2892960298894
2.07,-0.27941741914552426,175.4641674622435
2.08,-0.2417176811324837,-262.96547317995095
2.09,-0.2011125121823479,177.7962400188509
2.1,-0.16100339241659423,-266.12348810035684
2.11,-0.1289019237701518,180.85708524939815
2.12,-0.1106189681172111,-266.31782748007413
2.13,-0.10849304304128776,182.84906389150032
2.14,-0.1298231579697186,-268.7470697265402
2.15,-0.17468017707170105,184.74387284374384
2.16,-0.229174723184536,-271.0305574382183
2.17,-0.28607865105008407,185.9342015445122
2.18,-0.3327781385512001,-272.46381036363323
2.19,-0.3633205954752987,187.3674544699272
2.2,-0.3799736752366982,-272.7310270107445
2.21,-0.38876083221718133,189.79669671639326
2.22,-0.3891151530631686,-274.8687601876347
2.23,-0.38925688140156345,189.96674367364588
2.24,-0.38465071040372956,-276.64210702755486
2.25,-0.37749342931478763,193.07617374912243
2.26,-0.3703361482258457,-277.6138039261413
2.27,-0.36785590230393517,193.36768281869834
2.28,-0.3666512114275786,-279.8487067928901
2.29,-0.36133639873777024,195.57829326298247
2.3,-0.36360405215208846,-282.2293641944268
2.31,-0.3610529420609805,198.44479911381242
2.32,-0.36119467039937536,-284.221342836529
2.33,-0.3601317078614137,199.12498694282291
2.34,-0.3626828179525217,-285.0958700452568
2.35,-0.3630371387985089,200.70399440302586
2.36,-0.36147812707616517,-286.67487750545973
2.37,-0.36452528635165526,203.4490381415325
2.38,-0.36452528635165526,-288.8126106823498
2.39,-0.3657299772280118,203.66766994371446
2.4,-0.36119467039937536,-290.48878783241145
2.41,-0.35921047366184694,205.31955467131135
2.42,-0.358430967800675,-292.3593043621903
2.43,-0.3617615837529549,208.3318150569293
2.44,-0.3601317078614137,-293.9140193999286
2.45,-0.36055689287659837,207.43299542573683
2.46,-0.3610529420609805,-294.61849965140374
2.47,-0.3626828179525217,209.15775742072773
2.48,-0.3597773870154265,-296.4161389137886
2.49,-0.3560215860479619,211.4655375548705
2.5,-0.35524208018679004,-298.43240997835545
2.51,-0.350777637527351,212.65586625563887
2.52,-0.3509193658657459,-299.0640129624366
2.53,-0.3480847990978481,215.0365236571756
2.54,-0.3465257873755043,-301.68759458861996
2.55,-0.343762084776804,217.3200113688537
2.56,-0.3453210964991478,-303.8253277655101
2.57,-0.3425573939004474,218.65609460441004
2.58,-0.3363213470110723,-306.30315485690545
2.59,-0.33554184114990043,219.99217783996636
2.6,-0.33447887861193876,-306.4003245467641
2.61,-0.3343371502735438,222.42142008643242
2.62,-0.3318569043516333,-308.6352274135129
2.63,-0.32469962326269136,223.32023971762487
2.64,-0.32179419232559614,-309.9713106490692
2.65,-0.3106685177615973,223.17448518283692
2.66,-0.2914643279090898,-311.16163934983757
2.67,-0.26992162047306667,227.25561215689987
2.68,-0.268858657935105,-313.2264952593337
2.69,-0.280338653345091,228.76174234970884
2.7,-0.29330679630822337,-314.99984209925395
2.71,-0.2996845715359934,229.10183626421409
2.72,-0.30896777770085865,-317.28332981093206
2.73,-0.3132904920219028,231.7497103128621
2.74,-0.32973097927570993,-318.1821494421245
2.75,-0.2887006253103895,234.61621616369206
2.76,-0.03217233281563987,-320.00408112697403
2.77,0.3205895014492396,235.05347976805592
2.78,0.23881225019538846,-321.80172038935893
2.79,-0.16008215821702745,238.18720226599714
2.8,-0.33221122519762053,-324.158085368431
2.81,-0.3122275294839411,238.81880525007833
2.82,-0.3037946933494452,-324.7168110851182
2.83,-0.3236366607247297,239.96054910591738
2.84,-0.32803023921497126,-326.0771867431392
2.85,-0.32717986918460196,241.78248079076693
2.86,-0.3259043141390479,-328.8951077490398
2.87,-0.33051048513688186,243.45865794082852
2.88,-0.3274633258613917,-330.6198697440307
2.89,-0.32576258580065304,245.45063658293068
2.9,-0.32427443824750674,-331.64015148754646
2.91,-0.32640036332343003,247.44261522503285
2.92,-0.32101468646442427,-334.31231795865915
2.93,-0.311731480299559,250.3091210758628
2.94,-0.3073379018093174,-336.0856647985794
2.95,-0.2975586464600701,251.37798766430785
2.96,-0.28777939111082274,-337.64037983631766
2.97,-0.275236433162875,254.0501541354205
2.98,-0.2570952058483292,-340.7983947567235
2.99,-0.22889126650774622,254.97326618907763
3.0,-0.2018920180435198,-341.9158461900979
3.01,-0.17000314190466972,256.62515091667456
3.02,-0.1385394507810043,-342.62032644157307
3.03,-0.11352439905430632,258.1069886870188
3.04,-0.09977675023000207,-345.31678533515037
3.05,-0.10083971276796373,258.90863862835266
3.06,-0.11883921174411467,-346.8957927953533
3.07,-0.17042832691985438,260.171844596515
3.08,-0.2403003977485348,-345.7540489395143
3.09,-0.3086843210240689,261.7751444791826
3.1,-0.36558824888961694,-350.70970312230503
3.11,-0.415476624004618,264.7145275974065
3.12,-0.4437514275143984,-350.9040425020223
3.13,-0.46373512322807775,265.8562714532456
3.14,-0.4750025261304715,-351.92432424553806
3.15,-0.4813803013582415,267.6053258707011
3.16,-0.4809551163430568,-355.15521643333796
3.17,-0.48017561048188495,271.29777408532954
3.18,-0.4771284512063948,-357.17148749790476
3.19,-0.4777662287291718,271.2491892404002
3.2,-0.4777662287291718,-359.40639036465353
3.21,-0.4777662287291718,274.72300565284667
3.22,-0.48322276975737505,-360.2080403059873
3.23,-0.4785457345903437,276.90932367466615
3.24,-0.4829393130805853,-363.77902640829245
3.25,-0.4813803013582415,278.63408566965705
3.26,-0.48230153555780825,-364.4835066597676
3.27,-0.48215980721941337,279.48432045592017
3.28,-0.48570301567928564,-367.3985973555269
3.29,-0.4833644980957699,284.0512958792764
3.3,-0.4866242498788524,-372.01415762381237
3.31,-0.4835770906033623,284.9015306655395
3.32,-0.48230153555780825,-371.7712333991658
3.33,-0.4820180788810185,286.6262926605304
3.34,-0.48230153555780825,-373.44741054922736
3.35,-0.4750025261304715,289.46850608889565
3.36,-0.473018329392943,-376.89693453920916
3.37,-0.46465635742764455,292.4564740520489
3.38,-0.46160919815215445,-378.06297081751285
3.39,-0.4556566079395691,294.05977393471653
3.4,-0.4563652496315435,-379.4476388979985
3.41,-0.447507228481863,296.56189344857654
3.42,-0.4397830340393415,-383.50447344959684
3.43,-0.4342556288419408,296.4890161811826
3.44,-0.4289408161521325,-384.5733400380419
3.45,-0.423129954277942,297.1449115877284
3.46,-0.4210040292020187,-384.5004627706479
3.47,-0.41887810412609533,301.3717930965794
3.48,-0.4151931673278282,-388.8973912367515
3.49,-0.41703563572696173,302.29490515023645
3.5,-0.4039257644254345,-389.43182453097404
3.51,-0.38238305698941133,304.6269777068439
3.52,-0.3599899795230188,-389.650456333156
3.53,-0.35021072417377147,306.78900330619865
3.54,-0.357793190277898,-394.4603559811588
3.55,-0.37338330750133586,309.8498485367459
3.56,-0.3825247853278062,-395.52922256960386
3.57,-0.393650459891805,308.87815163815947
3.58,-0.3973353966900721,-396.160825553685
3.59,-0.41002008297641473,311.06446965997895
3.6,-0.3874144130024299,-396.4766270457256
3.61,-0.18247523568341997,313.95526793327355
3.62,0.21620658022140363,-401.18935700386976
3.63,0.22463941635589954,315.48569054854715
3.64,-0.2015376971975326,-401.8452524104156
3.65,-0.4219252634015854,316.0930011101637
3.66,-0.3958472491369258,-403.1570432235073
3.67,-0.3672889889503556,317.84205552761927
3.68,-0.3845089820653347,-405.99925665187254
3.69,-0.39046157227792,321.0972401378838
3.7,-0.3839420687117551,-407.48109442221687
3.71,-0.37671392345361576,321.655965854571
3.72,-0.37309985082454605,-407.99123529397474
3.73,-0.37097392574862276,323.25926573723854
3.74,-0.3641001013364706,-410.93061841219867
3.75,-0.35921047366184694,325.6885079837046
3.76,-0.3498564033277842,-412.9954743216948
3.77,-0.3445415906379759,327.02459121926097
3.78,-0.3318569043516333,-414.9388681188677
3.79,-0.3239201174015195,327.94770327291803
3.8,-0.3139991337138772,-417.416695210263
3.81,-0.29798383147525476,331.1057181933239
3.82,-0.2757324823472571,-419.1657496277186
3.83,-0.24993792475938728,331.34864241797055
3.84,-0.22081275121923752,-420.13744652630504
3.85,-0.18431770408255352,333.46208317239604
3.86,-0.14590932437753854,-421.6921615640433
3.87,-0.10480810624302063,336.0856647985794
3.88,-0.07128935421262932,-424.63154468226725
3.89,-0.0469829441779058,337.4217480341357
3.9,-0.03954220641217411,-424.16998865543866
3.91,-0.05123479432975248,338.05335101821686
3.92,-0.09368243167902182,-426.5992309019047
3.93,-0.15228709960530856,340.6769326444002
3.94,-0.2139389268070854,-428.63979438893625
3.95,-0.2658114986596149,342.83895824375503
3.96,-0.30088926241235,-429.1499352606941
3.97,-0.33036875679848693,342.1587704147445
3.98,-0.3429825789156321,-430.72894272089707
3.99,-0.34496677565316053,346.7986231054947
4.0,-0.3442581339611861,-433.9598349086969
4.01,-0.3442581339611861,348.3290457207683
4.02,-0.3388724571021803,-436.77775591459755
4.03,-0.3358252978266902,347.98895180626306
4.04,-0.32824283172256363,-436.5348316899509
4.05,-0.32824283172256363,352.288710582508
4.06,-0.32640036332343003,-439.93577083500344
4.07,-0.3274633258613917,352.14295604772
4.08,-0.3268255483386147,-440.39732686183197
4.09,-0.33114826265965885,354.64507556158003
4.1,-0.33355764441237196,-441.68482525245895
4.11,-0.34213220888526275,355.3252633905906
4.12,-0.348226527436243,-443.84685085181377
4.13,-0.3465257873755043,358.43469346606713
4.14,-0.3446833189763708,-445.11005681997614
4.15,-0.3506359091889561,359.40639036465353
4.16,-0.35403738931043344,-445.9845840287039
4.17,-0.35524208018679004,360.74247360020985
4.18,-0.3608403495533882,-449.40981559622105
4.19,-0.36133639873777024,364.33775212497966
4.2,-0.36608429807399906,-452.0333972224044
4.21,-0.3628245462909166,364.9207702641315
4.22,-0.3642418296748655,-450.6730215643834
4.23,-0.36516306387443226,366.54836256926376
4.24,-0.3672889889503556,-455.3614591000629
4.25,-0.36225763293733704,369.1962366179118
4.26,-0.3633205954752987,-456.60037264576056
4.27,-0.35963565867703157,371.43113948466055
4.28,-0.3604151645382035,-456.7218347580839
4.29,-0.35857269613906995,371.43113948466055
4.3,-0.3570845485859236,-459.95272694588374
4.31,-0.35566726520197467,374.32193775795514
4.32,-0.3580057827854904,-461.43456471622807
4.33,-0.3526201059264846,376.24103913266333
4.34,-0.3535413401260514,-462.2847995024912
4.35,-0.35339961178765644,376.8483496942798
4.36,-0.3544625743256181,-465.661446225079
4.37,-0.3485099841130328,379.49622374292784
4.38,-0.3364630753494672,-465.734323492473
4.39,-0.3170462929893674,380.3707509516556
4.4,-0.2984798806596369,-467.33762337514054
4.41,-0.29706259727568796,382.07122052418185
4.42,-0.31038506108480757,-470.30129891582914
4.43,-0.32073122978763446,384.6948021503652
4.44,-0.3268255483386147,-470.66568525279905
4.45,-0.34106924634730107,385.1320657547291
4.46,-0.34390381311519885,-472.9977578094065
4.47,-0.35368306846444625,386.9054125946493
4.48,-0.2967791405988982,-474.2852562000335
4.49,0.006873824412152131,390.2334744723078
4.5,0.3594939303386367,-476.7387908689642
4.51,0.20770287991771028,390.64644565420707
4.52,-0.21053744668560806,-477.1031772059341
4.53,-0.3538247968028411,391.5938501303288
4.54,-0.32640036332343003,-479.07086342557164
4.55,-0.31782579885053924,392.61413187384454
4.56,-0.3334159160739771,-482.3503404583008
4.57,-0.33291986688959496,395.45634530220985
4.58,-0.33065221347527674,-482.03453896626024
4.59,-0.32604604247744284,396.3551649334023
4.6,-0.32229024150997826,-484.41519636779697
4.61,-0.31782579885053924,397.37544667691805
4.62,-0.314920367913444,-485.7998644482826
4.63,-0.3100307402388203,400.4119994850006
4.64,-0.3073379018093174,-487.50033402080885
4.65,-0.3003223490587704,401.3594039611224
4.66,-0.2958579063993314,-487.57321128820286
4.67,-0.28487396017372746,402.62260992928475
4.68,-0.2724018663949772,-490.4154247165681
4.69,-0.2522055781737055,405.12472944314476
4.7,-0.23498558505872646,-491.43570646008385
4.71,-0.20628559653376138,406.19359603158983
4.72,-0.17701869465521672,-491.7515079521245
4.73,-0.14279130093285097,406.84949143813566
4.74,-0.10239872449030751,-494.47225926816645
4.75,-0.06101404967899984,411.85373046585573
4.76,-0.032951838676811764,-493.1847608775394
4.77,-0.01020444036443203,410.88203356726933
4.78,-0.0027637025987003413,-497.80032114582497
4.79,-0.02409381752713118,411.92660773324974
4.8,-0.07355700762694754,-499.64654525313915
4.81,-0.13060266383089048,413.554200038382
4.82,-0.19289226855544434,-499.76800736546244
4.83,-0.24065471859452203,413.3841530811294
4.84,-0.2799843324991038,-501.2255527133421
4.85,-0.3018104966119168,414.57448178189776
4.86,-0.31343222036029766,-503.0474843981916
4.87,-0.3156998737746159,417.1494785631518
4.88,-0.3150620962518389,-504.9180009279705
4.89,-0.31144802362276924,417.8053739696976
4.9,-0.3102433327464127,-505.08804788522315
4.91,-0.30946382688524077,419.19004205018325
4.92,-0.30946382688524077,-505.50101906712234
4.93,-0.3106685177615973,420.06456925891104
4.94,-0.3102433327464127,-507.5415825541539
4.95,-0.31782579885053924,422.03225547854856
4.96,-0.32165246398720126,-508.65903398752823
4.97,-0.32717986918460196,423.27116902424626
4.98,-0.3278885108765764,-511.11256865645896
4.99,-0.3331324593971873,425.40890220113636
5.0,-0.3364630753494672,-511.86563375286346
5.01,-0.34610060236031964,426.2591369873995
5.02,-0.3524783775880897,-512.7644533840559
5.03,-0.3531161551108667,426.55064605697544
5.04,-0.3555255368635798,-515.2179880529866
5.05,-0.3608403495533882,429.8301230897046
5.06,-0.3677141739655403,-515.0722335181987
5.07,-0.36913145734948916,429.7815382447753
5.08,-0.37600528176164133,-516.9184576255128
5.09,-0.3794776260523161,430.874697255685
5.1,-0.3825247853278062,-518.1330787487459
5.11,-0.386634907141258,433.44969403693904
5.12,-0.3924457690154485,-519.4448695618375
5.13,-0.3920205840002638,433.2310622347571
5.14,-0.39613070581371557,-520.6837831075352
5.15,-0.3966976191672951,434.2756364007375
5.16,-0.3990361367508108,-521.8012345409096
5.17,-0.4022250243646958,436.77775591459755
5.18,-0.4017289751803137,-523.0158556641427
5.19,-0.4112247738527713,437.7737452356486
5.2,-0.41490971065103843,-524.2304767873757
5.21,-0.4150514389894333,438.01666946029525
5.22,-0.4134924272670895,-525.6151448678613
5.23,-0.4151931673278282,440.7617131988019
5.24,-0.41930328914127996,-526.6111341889124
5.25,-0.42525587935386533,441.3204389154891
5.26,-0.42660229856861676,-528.8460370556612
5.27,-0.4268148910762091,441.4904858727417
5.28,-0.423129954277942,-529.3318855049544
5.29,-0.4210040292020187,443.04520091048
5.3,-0.4055556403169757,-530.2549975586115
5.31,-0.3867766354796529,444.8914250177942
5.32,-0.3833042911889781,-531.8582974412791
5.33,-0.39783144587445424,445.2315189322994
5.34,-0.41795686992652853,-532.6356549601483
5.35,-0.43255488878120213,447.1506203070076
5.36,-0.4415546382692776,-534.3361245326745
5.37,-0.44828673434303484,447.7579308686241
5.38,-0.4661445049807909,-534.8219729819677
5.39,-0.4374445164558258,448.3895338527053
5.4,-0.21422238348387518,-535.6722077682308
5.41,0.15916092401746068,450.26005038248417
5.42,0.12876019543175693,-537.0568758487165
5.43,-0.272685323071767,450.4300973397368
5.44,-0.4757820319916434,-537.955695479909
5.45,-0.45579833627796396,451.3532093933939
5.46,-0.43595636890267947,-539.0731469132833
5.47,-0.45714475549271544,452.8836320086675
5.48,-0.46111314896777233,-539.0002696458894
5.49,-0.45530228709358184,453.5152349927487
5.5,-0.4574282121695052,-541.4052194698908
5.51,-0.4579242613538873,454.8999030732343
5.52,-0.44878278352741696,-542.2311618336892
5.53,-0.44389315585279326,456.4546181109726
5.54,-0.44034994739292105,-541.2351725126381
5.55,-0.43609809724107435,456.9647589827305
5.56,-0.43347612298076893,-544.393187433044
5.57,-0.4272400760913938,457.499192276953
5.58,-0.4144136614666563,-545.389176754095
5.59,-0.4017289751803137,459.0539073146913
5.6,-0.3874144130024299,-544.1016783634681
5.61,-0.3677141739655403,459.2482466944086
5.62,-0.3466675157138992,-546.9924766367627
5.63,-0.31527468875943127,460.63291477489423
5.64,-0.2799843324991038,-547.9155886904198
5.65,-0.24263891533205048,461.726073785804
5.66,-0.20217547472030958,-548.8629931665415
5.67,-0.17134956111942115,462.04187527784455
5.68,-0.1501611745293852,-550.903556653573
5.69,-0.14541327519315642,463.0378645988956
5.7,-0.15760191229511689,-550.2719536694918
5.71,-0.193955231093406,464.228193299664
5.72,-0.2456860746075406,-550.0533218673099
5.73,-0.30301518748827333,464.6897493264926
5.74,-0.3524783775880897,-552.482564113776
5.75,-0.3947134224297667,465.9043704497256
5.76,-0.42036625167924163,-552.9684125630691
5.77,-0.43149192624324045,466.5845582787361
5.78,-0.4347516780263229,-553.0412898304631
5.79,-0.4374445164558258,467.9935187816864
5.8,-0.43765710896341814,-555.7620411465051
5.81,-0.43212970376601745,468.9652156802728
5.82,-0.42447637349269346,-555.5434093443232
5.83,-0.4240511884775088,470.2041292259705
5.84,-0.42220872007837523,-555.5191169218585
5.85,-0.419941066664057,469.88832773392994
5.86,-0.4197993383256621,-557.6082652538194
5.87,-0.4223504484167701,470.66568525279905
5.88,-0.4272400760913938,-557.1952940719201
5.89,-0.42908254449052735,472.4390320927193
5.9,-0.43106674122805577,-558.7743015321231
5.91,-0.4358146405642846,471.8560139535674
5.92,-0.4387200715013798,-560.353308992326
5.93,-0.4385074789937875,474.1395016652455
5.94,-0.43942871319335425,-560.6691104843666
5.95,-0.44190895911526484,474.67393495946806
5.96,-0.4437514275143984,-561.2278362010537
5.97,-0.44722377180507317,474.79539707179134
5.98,-0.44878278352741696,-562.8068436612567
5.99,-0.44630253760550637,475.2812455210846
6.0,-0.44736550014346804,-564.3858511214596
6.01,-0.4510504369417352,476.95742267114616
6.02,-0.4506252519265505,-563.2441072656206
6.03,-0.4509087086033403,477.75907261247994
6.04,-0.45289290534086873,-564.9688692606115
6.05,-0.4509087086033403,477.6619029226213
6.06,-0.4510504369417352,-565.6733495120867
6.07,-0.4504126594189582,478.48784528641977
6.08,-0.45211339947969686,-565.8191040468746
6.09,-0.44878278352741696,479.119448270501
6.1,-0.4507669802649454,-567.5924508867948
6.11,-0.4493496968809965,479.24091038282427
6.12,-0.4480032776662451,-566.6450464106731
6.13,-0.44878278352741696,482.0831238111895
6.14,-0.44736550014346804,-567.3009418172189
6.15,-0.4484284626814297,480.8685026879565
6.16,-0.4467985867898885,-568.8070720100279
6.17,-0.44495611839075494,481.621567784361
6.18,-0.44814500600463997,-570.5561264274835
6.19,-0.45133389361852494,483.5163767366045
6.2,-0.4545936454016074,-570.8719279195241
6.21,-0.4539558678788304,484.6581205924436
6.22,-0.4358146405642846,-571.3577763688172
6.23,-0.41398847645147163,484.2937342554737
6.24,-0.4022250243646958,-571.7464551282518
6.25,-0.4039257644254345,485.7512796033533
6.26,-0.42355513929312666,-572.378058112333
6.27,-0.4421924157920546,486.45575985482844
6.28,-0.451971671141302,-573.519801968172
6.29,-0.46005018642981066,486.844438614263
6.3,-0.469829441779058,-573.0096610964141
6.31,-0.4812385730198466,486.52863712222245
6.32,-0.4136341556054844,-575.2931488080923
6.33,-0.10013107107598929,488.35056880707197
6.34,0.1537752471584549,-576.1919684392847
6.35,-0.06335256726251552,489.03075663608246
6.36,-0.416114401527395,-577.7709758994877
6.37,-0.5026395521174749,489.3708505505877
6.38,-0.46309734570530076,-577.2608350277297
6.39,-0.4662862333191858,488.9092945237592
6.4,-0.4810968446814517,-577.5037592523764
6.41,-0.48230153555780825,490.8769807433967
6.42,-0.4829393130805853,-578.9855970227206
6.43,-0.4891753599699604,492.67462000578155
6.44,-0.48464005314132397,-579.8115393865191
6.45,-0.48322276975737505,492.55315789345826
6.46,-0.4796086971283054,-579.4957378944786
6.47,-0.4779079570675667,491.87297006444777
6.48,-0.4745773411152868,-580.0787560336304
6.49,-0.47259314437775835,492.67462000578155
6.5,-0.46954598510226825,-580.467434793065
6.51,-0.46309734570530076,494.47225926816645
6.52,-0.45119216528013006,-581.8763952960153
6.53,-0.4373027881174309,494.4479668457018
6.54,-0.4258936568766423,-581.5848862264394
6.55,-0.4035714435794473,495.15244709717695
6.56,-0.3721786166249793,-582.1436119431265
6.57,-0.34085665383970876,496.48853033273326
6.58,-0.3082591360088842,-584.9615329490272
6.59,-0.2761576673624418,496.1727288406927
6.6,-0.25114261563574386,-583.8440815156528
6.61,-0.2401586694101399,497.654566611037
6.62,-0.24370187787001216,-585.8360601577549
6.63,-0.2691421146118948,498.5290938197648
6.64,-0.3159833304514057,-586.2733237621188
6.65,-0.37671392345361576,499.08781953645195
6.66,-0.4348934063647178,-586.1761540722603
6.67,-0.48230153555780825,498.942065001664
6.68,-0.5207807794320207,-587.123558548382
6.69,-0.5430321285600184,499.96234674517973
6.7,-0.5552916298311763,-587.4636524628872
6.71,-0.563370145119685,499.93805432271506
6.72,-0.5647165643344364,-588.2895948266856
6.73,-0.565921255210793,500.6425345741902
6.74,-0.5674802669331367,-587.6094069976751
6.75,-0.5628740959353028,501.24984513580677
6.76,-0.5610316275361693,-588.411056939009
6.77,-0.5621654542433284,501.8814481198879
6.78,-0.5652126135188185,-590.1115265115352
6.79,-0.565921255210793,501.75998600756463
6.8,-0.5674802669331367,-589.4556311049894
6.81,-0.573574585484117,502.877437440939
6.82,-0.579952360711887,-591.3990249021622
6.83,-0.5815113724342308,503.36328589023225
6.84,-0.5821491499570078,-590.4516204260404
6.85,-0.588243468507988,504.45644490114194
6.86,-0.5937000095361913,-591.5204870144855
6.87,-0.5912906277834782,502.53734352643374
6.88,-0.5949755645817453,-591.7148263942029
6.89,-0.5987313655492098,503.48474800255553
6.9,-0.5995108714103817,-591.7634112391321
6.91,-0.5961802554581018,504.69936912578856
6.92,-0.5967471688116813,-592.419306645678
6.93,-0.5955424779353248,503.97059645184873
6.94,-0.5976684030112481,-592.9537399399005
6.95,-0.5980227238572354,505.74394329176897
6.96,-0.5964637121348916,-593.9983141058809
6.97,-0.588243468507988,505.93828267148626
6.98,-0.583779025848549,-594.4841625551742
6.99,-0.5857632225860775,506.1083296287389
7.0,-0.5832121124949694,-594.6056246674974
7.01,-0.5791019906815177,506.44842354324413
7.02,-0.5757005105600403,-595.5530291436191
7.03,-0.5731494004689324,508.0274310034471
7.04,-0.56655903273357,-594.5084549776387
7.05,-0.5599686649982076,506.8613947251433
7.06,-0.5480634845730369,-595.6501988334778
7.07,-0.5247491729070776,508.4889870302756
7.08,-0.5039859713322263,-596.3060942400236
7.09,-0.5047654771933983,509.8493626882966
7.1,-0.5145447325426455,-597.4721305183274
7.11,-0.5253869504298546,508.9748354795688
7.12,-0.5331111448723761,-598.0794410799439
7.13,-0.5384968217313819,509.12059001435676
7.14,-0.5395597842693436,-598.1523183473379
7.15,-0.5457958311587187,509.2663445491448
7.16,-0.4548771020783972,-597.4478380958627
7.17,-0.11947698926689168,509.70360815350864
7.18,0.10190267530592541,-599.3912318930355
7.19,-0.16369623084609713,510.3352111375898
7.2,-0.5003010345339592,-599.3912318930355
7.21,-0.5390637350849614,512.0599731325807
7.22,-0.48067165966626707,-599.5855712727529
7.23,-0.48414400395694185,512.3271897796919
7.24,-0.4928602967682275,-599.9256651872581
7.25,-0.4864825215404575,511.03969138906496
7.26,-0.4796086971283054,-599.9256651872581
7.27,-0.4745773411152868,511.01539896660034
7.28,-0.46600277664239603,-599.7070333850761
7.29,-0.4579242613538873,512.5701140043386
7.3,-0.45367241120204066,-601.3103332677438
7.31,-0.4464442659439013,512.3271897796919
7.32,-0.4347516780263229,-600.4600984814806
7.33,-0.42844476696775036,512.6915761166618
7.34,-0.41795686992652853,-601.2617484228144
7.35,-0.4042092211022243,512.9345003413085
7.36,-0.3845089820653347,-602.2334453214008
7.37,-0.36785590230393517,513.2745942558138
7.38,-0.3456045531759375,-601.650427182249
7.39,-0.3188887613885009,514.2219987319355
7.4,-0.2839527259741607,-601.4317953800671
7.41,-0.2455443462691457,515.0965259406632
7.42,-0.2043013997962329,-604.3468860758263
7.43,-0.16844413018232593,515.3880350102393
7.44,-0.1385394507810043,-604.4926406106143
7.45,-0.12174464268120991,515.7524213472092
7.46,-0.12131945766602524,-603.2780194873812
7.47,-0.14420858431679986,516.1168076841791
7.48,-0.19239621937106222,-604.7598572577256
7.49,-0.2480954563602537,516.6026561334722
7.5,-0.3003223490587704,-605.5857996215241
7.51,-0.343762084776804,516.9913348929068
7.52,-0.3707613332410304,-605.1728284396248
7.53,-0.38528848792650655,516.7727030907249
7.54,-0.3903198439395251,-606.7518358998277
7.55,-0.3924457690154485,517.2099666950887
7.56,-0.3906033006163149,-605.1242435946955
7.57,-0.3884773755403916,518.0359090588872
7.58,-0.3816035511282394,-606.4360344077871
7.59,-0.3761470101000362,518.4245878183218
7.6,-0.3715408391022023,-607.5534858411615
7.61,-0.3642418296748655,519.129068069797
7.62,-0.3630371387985089,-606.9704677020097
7.63,-0.3626828179525217,519.3962847169082
7.64,-0.36452528635165526,-607.8449949107375
7.65,-0.3634623238136936,519.3962847169082
7.66,-0.3666512114275786,-608.4037206274246
7.67,-0.36849367982671216,519.3962847169082
7.68,-0.36984009904146364,-608.4037206274246
7.69,-0.36877713650350197,520.9752921771112
7.7,-0.3723203449633742,-608.8652766542532
7.71,-0.37579268925404896,520.635198262606
7.72,-0.3752257759004694,-609.7155114405164
7.73,-0.37671392345361576,520.5137361502826
7.74,-0.3781312068375646,-609.3511251035465
7.75,-0.37735170097639276,521.3882633590104
7.76,-0.3793358977139212,-609.1082008788998
7.77,-0.38082404526706753,522.1899133003442
7.78,-0.3816035511282394,-610.3228220021329
7.79,-0.3799736752366982,522.0684511880208
7.8,-0.3776351576531825,-611.3916885905779
7.81,-0.3765721951152209,523.064440509072
7.82,-0.37338330750133586,-611.7317825050832
7.83,-0.3745879983776924,522.7000541721021
7.84,-0.37600528176164133,-612.1204612645178
7.85,-0.37671392345361576,522.9429783967487
7.86,-0.3723203449633742,-612.9221112058515
7.87,-0.3696983707030687,525.1050039961035
7.88,-0.3682102231499224,-612.8006490935282
7.89,-0.35963565867703157,523.4774116909712
7.9,-0.33766776622582373,-614.2581944414079
7.91,-0.31541641709782614,524.6920328142043
7.92,-0.3062749392713558,-612.6063097138109
7.93,-0.31832184803492136,525.3479282207501
7.94,-0.33511665613471575,-613.74805356965
7.95,-0.3498564033277842,525.7608994026493
7.96,-0.35736800526271334,-615.9100791690048
7.97,-0.3628245462909166,526.0281160497606
7.98,-0.37309985082454605,-615.7157397892875
7.99,-0.3626828179525217,527.1698599055997
8.0,-0.20465572064222015,-615.9586640139341
8.01,0.1661764767680077,526.7325963012357
8.02,0.2455443462691457,-616.7117291103385
8.03,-0.1065088463037593,526.8540584135591
8.04,-0.3535413401260514,-615.5214004095702
8.05,-0.36558824888961694,528.0200946918627
8.06,-0.33554184114990043,-615.7643246342168
8.07,-0.34610060236031964,528.1901416491154
8.08,-0.3531161551108667,-616.7360215328032
8.09,-0.3529035626032743,529.7448566868536
8.1,-0.35127368671173315,-616.5902669980153
8.11,-0.3485099841130328,528.2630189165094
8.12,-0.3425573939004474,-617.7563032763189
8.13,-0.3392267779481675,529.2104233926311
8.14,-0.33369937275076683,-620.0154985655324
8.15,-0.33022702846009205,529.8177339542476
8.16,-0.3229988832019527,-619.3596031589866
8.17,-0.31279444283752067,530.1092430238235
8.18,-0.2994011148592036,-619.5782349611685
8.19,-0.2869998852496508,530.862308120228
8.2,-0.27006334881146155,-620.4284697474317
8.21,-0.24979619642099238,531.6396656390972
8.22,-0.22889126650774622,-620.2341303677143
8.23,-0.19941177212160924,532.9028716072595
8.24,-0.16525524256844093,-621.3029969561594
8.25,-0.12606735700225402,532.1012216659257
8.26,-0.08836761898921347,-622.4933256569278
8.27,-0.05633701451196849,533.7531063935227
8.28,-0.0350777637527351,-622.0317696300992
8.29,-0.023526904173551622,533.2429655217647
8.3,-0.0350777637527351,-622.979174106221
8.31,-0.07277750176577566,534.6033411797857
8.32,-0.12925624461613905,-623.4407301330496
8.33,-0.1853806666205152,534.8219729819677
8.34,-0.2371115101346498,-623.4164377105849
8.35,-0.2741734706249133,535.9151319928774
8.36,-0.2998262998743883,-621.9588923627052
8.37,-0.3163376512973929,536.2795183298473
8.38,-0.3215107356488064,-625.8213875345863
8.39,-0.32321147570954506,536.8625364689992
8.4,-0.32207764900238595,-625.0926148606464
8.41,-0.3196682672496728,537.3240924958277
8.42,-0.3139991337138772,-625.3598315077578
8.43,-0.31541641709782614,537.4212621856864
8.44,-0.31477863957504915,-627.0117162353547
8.45,-0.31449518289825934,538.0285727473029
8.46,-0.3179675271889341,-627.35181014986
8.47,-0.3215107356488064,537.5427242980097
8.48,-0.32604604247744284,-626.841669278102
8.49,-0.3288097450761432,538.878807533566
8.5,-0.3347623352887285,-628.4449691607697
8.51,-0.3388724571021803,538.7573454212427
8.52,-0.3445415906379759,-628.7607706528103
8.53,-0.35021072417377147,539.7533347422938
8.54,-0.3544625743256181,-629.3437887919621
8.55,-0.36055689287659837,540.6521543734863
8.56,-0.3682102231499224,-630.3397781130132
8.57,-0.37047787656424064,540.8222013307388
8.58,-0.37600528176164133,-631.2385977442057
8.59,-0.3835877478657679,542.3769163684772
8.6,-0.38989465892434044,-632.2102946427921
8.61,-0.3920205840002638,541.9882376090426
8.62,-0.3985400875664287,-631.8702007282868
8.63,-0.39960305010439034,542.7655951279118
8.64,-0.4055556403169757,-632.3803416000446
8.65,-0.4072563803777144,543.6158299141748
8.66,-0.41094131717598154,-632.1617097978627
8.67,-0.41257119306752277,544.8547434598726
8.68,-0.4174608207421464,-634.6152444667935
8.69,-0.4183820549417132,543.0813966199523
8.7,-0.42178353506319055,-634.5909520443288
8.71,-0.42064970835603144,546.3608736526814
8.72,-0.4191615608028851,-635.1253853385513
8.73,-0.42064970835603144,545.7778555135296
8.74,-0.41427193312826144,-636.2428367719257
8.75,-0.3985400875664287,545.3405919091657
8.76,-0.383446019527373,-635.1982626059453
8.77,-0.3790524410371314,546.82242967951
8.78,-0.3913828064774868,-635.7326959001679
8.79,-0.41094131717598154,547.2354008614093
8.8,-0.43241316044280725,-636.5343458415016
8.81,-0.4391452565165645,547.5754947759145
8.82,-0.44389315585279326,-635.5626489429152
8.83,-0.4638768515664727,548.8387007440768
8.84,-0.4387200715013798,-637.8218442321287
8.85,-0.2012542405207428,549.0330401237942
8.86,0.13272858890681383,-638.5506169060684
8.87,0.03741628133625077,548.8629931665415
8.88,-0.3696983707030687,-638.7692487082504
8.89,-0.5144030042042507,550.1504915571685
8.9,-0.46600277664239603,-639.1093426227557
8.91,-0.44892451186581184,550.3448309368858
8.92,-0.4672074675187526,-639.4251441147962
8.93,-0.4708924043170197,550.2962460919565
8.94,-0.47153018183979667,-639.7166531843721
8.95,-0.47039635513263756,551.2922354130076
8.96,-0.46997117011745293,-640.2510864785947
8.97,-0.46444376492005224,553.0898746753925
8.98,-0.462176111505734,-641.3928303344337
8.99,-0.45671957047753076,551.8266687072302
9.0,-0.44984574606537864,-642.0487257409795
9.01,-0.44587735259032174,552.7983656058166
9.02,-0.43701933144064115,-641.6843394040096
9.03,-0.42525587935386533,553.5028458572917
9.04,-0.4134924272670895,-643.5305635113239
9.05,-0.39960305010439034,554.4016654884841
9.06,-0.3791941693755263,-642.6074514576668
9.07,-0.35566726520197467,554.7174669805247
9.08,-0.3276050541997866,-643.7491953135058
9.09,-0.2918895129242745,555.5434093443232
9.1,-0.25085915895895405,-644.7694770570216
9.11,-0.2163483085597985,554.2316185312316
9.12,-0.18800264088082067,-644.1378740729403
9.13,-0.1669559826291796,555.1790230073533
9.14,-0.15639722141876033,-644.235043762799
9.15,-0.17057005525824928,556.053550216081
9.16,-0.21011226167042338,-645.0852785490622
9.17,-0.2655280419828251,556.272182018263
9.18,-0.3179675271889341,-645.59541942082
9.19,-0.3657299772280118,557.0738319595968
9.2,-0.39811490255124404,-646.0326830251839
9.21,-0.4180985982649234,557.2681713393141
9.22,-0.4278778536141708,-647.1987193034877
9.23,-0.426956619414604,557.3410486067081
9.24,-0.42773612527577587,-647.2715965708816
9.25,-0.4228464976011522,559.2601499814162
9.26,-0.4194450174796749,-647.9274919774274
9.27,-0.415476624004618,558.8714712219817
9.28,-0.40846107125407094,-648.1704162020741
9.29,-0.40435094944061917,559.0415181792343
9.3,-0.40449267777901404,-647.9517843998921
9.31,-0.40513045530179104,559.2115651364869
9.32,-0.4042092211022243,-648.5590949615087
9.33,-0.4048469986250013,558.992933334305
9.34,-0.4039257644254345,-649.4822070151657
9.35,-0.40144551850352395,559.3573196712749
9.36,-0.40435094944061917,-648.46192527165
9.37,-0.40449267777901404,560.280431724932
9.38,-0.40513045530179104,-650.0895175767822
9.39,-0.4017289751803137,559.1386878690929
9.4,-0.4056973686553706,-649.0206509883371
9.41,-0.40435094944061917,562.0294861423876
9.42,-0.40116206182673414,-650.3810266463581
9.43,-0.4023667527030907,561.5922225380236
9.44,-0.40406749276382936,-650.5510736036108
9.45,-0.40541391197858084,562.0780709873169
9.46,-0.40116206182673414,-652.2029583312077
9.47,-0.4042092211022243,562.3209952119635
9.48,-0.3999573709503776,-650.3081493789642
9.49,-0.3945716940913718,563.5599087576612
9.5,-0.3915245348158817,-651.7656947268438
9.51,-0.38925688140156345,562.4424573242868
9.52,-0.38833564720199665,-651.7656947268438
9.53,-0.3830208345121883,563.6084936025906
9.54,-0.37827293517595956,-652.7373916254303
9.55,-0.37444627003929754,562.4424573242868
9.56,-0.3677141739655403,-651.7899871493084
9.57,-0.36069862121499324,564.0214647844897
9.58,-0.34177788803927556,-653.539041566764
9.59,-0.3215107356488064,564.0457572069544
9.6,-0.3097472835620306,-653.1746552297941
9.61,-0.3181801196965265,564.2643890091364
9.62,-0.33128999099805373,-653.2232400747234
9.63,-0.3407149255013139,564.6287753461063
9.64,-0.34928948997420467,-653.1503628073294
9.65,-0.3521949209112999,564.9931616830762
9.66,-0.35750973360110827,-654.8508323798557
9.67,-0.3404314688245241,565.7705192019453
9.68,-0.17319202951855472,-654.7293702675324
9.69,0.20720683073332816,565.8191040468746
9.7,0.28288976343619904,-655.1909262943609
9.71,-0.08149379457706135,564.6287753461063
9.72,-0.3323529535360154,-654.1463521283805
9.73,-0.33688826036465186,564.9445768381469
9.74,-0.3013853115967321,-654.9965869146437
9.75,-0.311093702776782,564.3372662765303
9.76,-0.31740061383535456,-654.2435218182392
9.77,-0.3113062952843743,565.2117934852581
9.78,-0.3082591360088842,-655.2152187168256
9.79,-0.3031569158266682,565.6976419345514
9.8,-0.29954284319759855,-654.5350308878151
9.81,-0.2909682787247077,565.5518873997634
9.82,-0.28487396017372746,-655.7253595885835
9.83,-0.2783544566075626,565.2846707526521
9.84,-0.27098458301102835,-656.0411610806241
9.85,-0.26170137684616307,566.8879706353197
9.86,-0.24993792475938728,-655.8468217009068
9.87,-0.23484385672033156,565.5518873997634
9.88,-0.2177655919437474,-655.5553126313308
9.89,-0.20019127798278114,567.1308948599662
9.9,-0.1773021513320065,-656.5027171074527
9.91,-0.14895648365302866,566.013443426592
9.92,-0.11309921403912165,-655.3123884066842
9.93,-0.07582466104126577,566.013443426592
9.94,-0.03890442888939711,-654.899417224785
9.95,-0.005527405197400683,566.5235842983498
9.96,0.01707826477658416,-655.7253595885835
9.97,0.025652829249474964,567.3009418172189
9.98,0.014172833839488929,-656.0411610806241
9.99,-0.02225134912799762,566.1349055389152
