time_s,ECG1,ECG2,NIBP
0.0,-0.042902837513230305,-0.06974039319391147,70.92156023555157
0.01,-0.032827171127547426,-0.10888928189298709,69.40754283469109
0.02,0.04209028377244943,-0.05905510329182595,68.01630855231502
0.03,0.17047377481582798,-0.031186402861975503,67.02850451638776
0.04,0.18534350827211804,-0.03949209929550236,66.47828843656285
0.05,0.2031790628822583,-0.13380637119356767,66.32134760842487
0.06,0.10152858991057058,-0.2286926607523442,66.24287719435588
0.07,0.20854191757141208,-0.12490577639290115,66.19856448994045
0.08,0.11818594159657855,-0.02999660612769617,66.19856448994045
0.09,-0.005484737750270919,-0.1166000799593743,66.35550531807843
0.1,-0.05541616512125581,-0.07745119126029866,66.62415108859697
0.11,-0.01320399828768925,-0.1207414878229235,67.07374040214518
0.12,-0.06727944973665662,-0.1207414878229235,67.56671923876682
0.13,-0.0030877042149673323,-0.15217957845561195,67.98215084266147
0.14,-0.13565584702336742,-0.10177338219373958,68.24064161841812
0.15,-0.17486156501604472,-0.12964208262359,68.28495432283356
0.16,-0.14516272579050368,0.14913644450062827,68.21756208486842
0.17,0.4350006451270425,0.10525124957086376,68.00430719486917
0.18,1.5305668538218988,-0.19013867042040825,67.85844454283506
0.19,0.7898834914130904,-0.5620416727084125,67.7467396004545
0.2,-0.03457416167022632,-0.5193462745129274,67.35346434876757
0.21,0.04863134138573549,-0.13675798232283753,66.86048551214593
0.22,-0.01974505590097531,-0.09227788902593338,66.44505390825128
0.23,0.018323086854608775,-0.1302369809907297,66.05270183790634
0.24,-0.05480674981567015,-0.10353519658873012,65.67050476232326
0.25,0.026042347392027106,-0.0252602998970073,65.32338857773574
0.26,-0.01023817713383905,0.04296996667262656,64.97534921180623
0.27,0.02722055031615938,-0.03889720092836269,64.57099578401544
0.28,0.015357265700758575,-0.0430386087919119,64.13340782791309
0.29,0.04924075669132114,-0.05550859379541641,63.897996585706125
0.3,0.04566552023188528,0.05896358046611216,63.83060434774099
0.31,0.06289165953643988,-0.0430386087919119,63.79736981942942
0.32,0.09856276875672038,0.0388056781026489,63.47148680570762
0.33,0.15564466904657698,0.03228467677054104,62.966506611640135
0.34,0.09141229583784866,0.05839156280540094,62.506762303330056
0.35,0.19009694765568616,0.05244257913400429,62.1928806470541
0.36,0.21687059341441606,0.14973134286776793,62.05809617112384
0.37,0.250144669099393,0.11829325223507949,61.95654622350516
0.38,0.3161240328508002,0.23633481669944606,61.90115534298587
0.39,0.3862880483672289,0.20430182769961794,62.18180247095025
0.4,0.3874662512913612,0.21201262576600513,63.381938215534774
0.41,0.5158497423347398,0.17167394033265018,66.12009407587146
0.42,0.42967841812492774,0.2618239236607378,70.29379692299966
0.43,0.24717884794554276,-0.0448233038933309,75.06202855436817
0.44,0.13959673266615466,-0.016954603463480447,79.3262031730112
0.45,0.12708340505812915,-0.05669839052969574,82.74843640776108
0.46,0.04387790200216735,-0.08989829555737472,85.35088461082552
0.47,0.0700421324553116,-0.05965000165896561,87.10123643523495
0.48,-0.040546431664965764,-0.14565857712350408,88.18966723743891
0.49,0.012960232165454987,-0.21267616625243016,88.55986295557614
0.5,-0.057772570969520355,-0.09760909362376191,88.31337353726532
0.51,-0.030430137592243844,-0.15929547815485945,87.4381976250606
0.52,-0.040546431664965764,-0.1029631789280189,86.13651193285739
0.53,-0.01499161651740718,-0.15574896865844992,84.62157135065492
0.54,-0.04529987104853389,-0.06855059645963214,82.94968994031447
0.55,0.019501289778741045,-0.26370014158787064,81.18825993980118
0.56,0.010603826317190444,0.02754837053985217,79.41575176318403
0.57,0.04209028377244943,-0.10177338219373958,77.86757665267
0.58,-0.020923258825107583,-0.08989829555737472,76.62220502232806
0.59,-0.00012188306111713155,-0.23759325555301072,75.49961651047053
0.6,-0.017348022365671723,-0.11422048649081563,74.43426524181628
0.61,0.04684372315601756,-0.14922796732634205,73.17689225402849
0.62,0.1371996991308511,0.04118527157120756,71.76350161944471
0.63,0.1092478504479889,-0.15039488335419293,70.40550186538022
0.64,0.14670657789798733,-0.06262449349466394,69.13797388283056
0.65,0.25550752378854674,-0.13735288068997722,68.13909167079943
0.66,0.1990350388042758,-0.05550859379541641,67.37654388231726
0.67,0.2923568359329595,-0.10472499332300944,66.86048551214593
0.68,0.16393271720254193,-0.08040280238956854,66.5124461462164
0.69,0.08251483237629806,-0.18242787235402105,66.43397573214742
0.7,0.026042347392027106,-0.050749406858299095,66.55768203197383
0.71,0.010603826317190444,-0.13261657445928834,66.78201509807694
0.72,0.016535468624890845,0.012698792067788997,67.02850451638776
0.73,-0.02271087705482551,-0.22336145615451566,67.241759406387
0.74,-0.09104664665449726,-0.16700627622124664,67.40977841062885
0.75,-0.12139552887266301,-0.09582439852234292,67.61195512452423
0.76,-0.11782029241322715,0.09337616293449892,67.8704459002809
0.77,0.24299419618052126,0.14023584969996175,68.13909167079943
0.78,1.400964532167349,-0.020501112959889985,68.31911203248711
0.79,1.1976635862239735,-0.6035701548760468,68.26279797062584
0.8,0.023076526238176905,-0.5448353814742192,68.02738672841888
0.81,0.008816208087472514,-0.28504784068561323,67.69042553859322
0.82,0.05159716253958569,-0.05846020492468629,67.46609247249012
0.83,0.07479557183887972,-0.1527744768227516,67.29807346824828
0.84,0.020110705084326705,0.035831186266950574,67.07374040214518
0.85,0.08133662945216578,-0.08278239585812719,66.65830879825053
0.86,0.006419174552168928,-0.03356599633053416,66.08593636621791
0.87,0.03493981085357771,-0.0887084988230954,65.53664346773499
0.88,0.0944187446787379,0.011531876039938117,65.19968227790933
0.89,0.09084350821930204,-0.015169908362061451,64.99750556401395
0.9,0.06171345661230761,0.004415976340690588,64.85164291197982
0.91,0.1449189596682694,-0.022880706428448645,64.5820739601193
0.92,0.13898731736056902,0.10406145283658444,64.13340782791309
0.93,0.2626173690203794,0.10049206263374645,63.640428991291444
0.94,0.07418615653329406,-0.022880706428448645,63.26931009181223
0.95,0.20378847818784393,0.02040959013417619,63.06805655925882
0.96,0.25668572671267903,0.2108228290317258,62.7984876073983
0.97,0.33692540861479064,0.09930226589946711,62.506762303330056
0.98,0.33989122976864083,0.14794664776634894,62.28242923722695
0.99,0.4486921756592003,0.28495631785989944,62.506762303330056
1.0,0.4581990544263365,0.32172561309041636,63.76321210977586
1.01,0.49923301833577083,0.11177225090297163,66.467210260459
1.02,0.4136304817445054,0.2078483371960275,70.55136451741433
1.03,0.38567863306164324,0.08863985670381005,75.19681303029844
1.04,0.21447355987911249,0.051252782399724965,79.28096728725377
1.05,0.20732308696024077,-0.133211472826428,82.5684160460734
1.06,0.02839875324029165,-0.036517607459804036,85.10439519251469
1.07,0.04566552023188528,-0.19489785735752554,86.86582519302799
1.08,-0.05005331043210202,-0.02999660612769617,87.88686375726682
1.09,-0.06313542565867414,-0.21386596298670948,88.22382494709247
1.1,-0.02746431643839364,-0.13142677772500902,87.93209964302423
1.11,0.010603826317190444,-0.12904718425645034,87.09015825913109
1.12,-0.015560404135953793,-0.040681896029781686,85.90110069065042
1.13,0.04505610492629963,-0.13497328722141855,84.50986640827436
1.14,-0.08275859849853232,-0.1207414878229235,82.9164554120029
1.15,-0.025067282903090054,-0.20201375705677307,81.21133947335089
1.16,-0.08690262257651479,-0.08754158279524452,79.58377076742588
1.17,-0.0042659071390996044,-0.19963416358821442,78.04667383301569
1.18,-0.07442992265552834,-0.054913695428276746,76.75606631691633
1.19,0.04444668962071397,-0.15158468008847226,75.63440098640079
1.2,-0.020313843519521924,-0.010433602131372581,74.54597018419683
1.21,0.008816208087472514,-0.1302369809907297,73.43538302978514
1.22,0.010603826317190444,-0.08040280238956854,72.15585368978965
1.23,0.08133662945216578,-0.16879097132266566,70.76461940741359
1.24,0.1586104902004272,0.04651647616903609,69.36230694893366
1.25,0.1235081685986933,-0.21446086135384915,68.13909167079943
1.26,0.16393271720254193,-0.0015330073307060592,67.29807346824828
1.27,0.21565176280324475,-0.0632193918618036,66.90479821656135
1.28,0.0403026655427315,-0.035327810725524704,66.75893556452723
1.29,-0.0060535253688175335,-0.1379477790571169,66.65830879825053
1.3,-0.04529987104853389,-0.016954603463480447,66.50136797011255
1.31,-0.11842970771881282,-0.20437046981890328,66.31026943232102
1.32,-0.11010103187580883,-0.05550859379541641,66.31026943232102
1.33,-0.11542325887792357,-0.16108017325627846,66.65830879825053
1.34,-0.19269711962618497,-0.12726248915503136,67.1411326401103
1.35,-0.21175150484749652,-0.08397219259240653,67.61195512452423
1.36,-0.1855872743943523,0.20606364209460848,67.88152407638476
1.37,0.6234318576141279,0.09751757079804813,67.8473663667312
1.38,1.6476558478684233,-0.2014188586896334,67.82521001452349
1.39,0.4177745058224879,-0.7002411395362423,67.8473663667312
1.4,-0.02746431643839364,-0.4493541935483029,67.90368042859248
1.41,-0.10234114365135145,-0.2642950399550103,67.91475860469633
1.42,-0.05659436804538808,-0.04660799899474989,67.75781777655835
1.43,-0.026854901132807984,-0.0673607997253528,67.33130799655986
1.44,-0.0006906706796637454,0.09751757079804813,66.8152496263885
1.45,-0.11899849533735943,-0.14625347549064374,66.3665834941823
1.46,-0.0310395528978295,-0.009838703764232917,66.10809271842562
1.47,-0.04529987104853389,-0.08575688769382551,65.95115189028765
1.48,-0.06370421327722076,0.014483487169207991,65.64834841011556
1.49,-0.023889079978957783,-0.10236828056087924,65.17752592570163
1.5,-0.041115219283512375,0.11769835386793982,64.683623907738
1.51,0.0789395959168622,0.048896069637594755,64.31342818960077
1.52,0.029008168545877306,0.11117735253583197,64.0780169473938
1.53,0.05456298369343589,-0.022880706428448645,63.87584023349841
1.54,0.03258340500531317,0.05068076473901375,63.52780086756889
1.55,0.19606921765042562,0.07381315893817533,63.11236926367425
1.56,0.12293938098014669,0.20073243749677996,62.641546779260324
1.57,0.21508297518469813,0.08626026323525139,62.28242923722695
1.58,0.22873387802981687,0.17997963676617704,62.21503699926182
1.59,0.3904320724452114,0.23455012159802704,62.697860841121596
1.6,0.3393224421500942,0.29742630286340394,64.1786437136705
1.61,0.33692540861479064,0.11948304896935882,66.95003410231877
1.62,0.25550752378854674,0.15863193766843445,70.7092285268943
1.63,0.2852063630140878,-0.004484618459975934,74.97247996419533
1.64,0.06943271714972593,0.03642608463409024,79.1240264591158
1.65,0.026042347392027106,-0.07983078472885732,82.5684160460734
1.66,-0.081539767887361,-0.12312108129148215,85.16070925437597
1.67,-0.0340053740516797,-0.1355681855885582,86.95537378320083
1.68,-0.1558478074817722,-0.08754158279524452,87.90902010947453
1.69,-0.0785739467335108,-0.21624555645526813,88.0890404711622
1.7,-0.12257373179679529,-0.054913695428276746,87.561903924887
1.71,-0.10652579541637297,-0.18302277072116072,86.52978718454432
1.72,-0.15824484101707578,-0.1432789836549454,85.31765008251395
1.73,-0.08929965611181838,-0.10058358545946024,84.06120027606815
1.74,-0.09462188311393312,-0.03830230256122303,82.52410334165796
1.75,-0.06906706796637455,-0.13973247415853587,80.66112339352598
1.76,-0.16836113508979772,-0.07033529156105113,78.78706526929015
1.77,-0.11066981949435545,-0.23580856045159174,77.1151838589497
1.78,-0.16836113508979772,-0.11362558812367597,75.81442134808847
1.79,-0.08808082550064707,-0.11955169108864416,74.75922507419608
1.8,-0.05362854689153788,0.02159938686845552,73.6486379197844
1.81,-0.06788886504224227,-0.15396427355703093,72.3691085797889
1.82,-0.06195722273454187,-0.1029631789280189,70.88832570723999
1.83,0.1146107051371427,-0.06974039319391147,69.34015059672595
1.84,-0.015560404135953793,-0.08694668442810485,68.00430719486917
1.85,0.10689144459972437,-0.22988245748662353,67.1965235206296
1.86,0.05456298369343589,-0.133211472826428,66.90479821656135
1.87,0.19663800526897224,-0.050154508491159426,66.74785738842337
1.88,0.0587476354584574,0.003226179606411259,66.56876020807769
1.89,-0.004875322444685261,-0.2061551649203223,66.34442714197458
1.9,-0.12911478941008134,-0.08218749749098753,66.33242578452874
1.91,-0.09405309549538651,-0.16998076805694498,66.72570103621567
1.92,-0.10234114365135145,-0.08635178606096518,67.38762205842113
1.93,-0.14040928640693554,-0.2761472458849467,68.00430719486917
1.94,-0.1172108771076415,-0.05965000165896561,68.34126838469483
1.95,-0.16356706801919052,-0.04184881205763257,68.48713103672895
1.96,-0.14516272579050368,0.18176433186759602,68.61083733655535
1.97,0.2216240327979842,0.034664270239099695,68.73362045503977
1.98,1.3771973352495084,-0.06498120625679416,68.9025626406236
1.99,1.2321564925201218,-0.5822224557783042,68.98103305469259
2.0,-0.07442992265552834,-0.5501894667784761,68.81209086910876
2.01,-0.029820722286658184,-0.2838580439513339,68.3745029130064
2.02,-0.030430137592243844,-0.042443710424772234,67.85844454283506
2.03,0.04387790200216735,-0.10650968842442844,67.38762205842113
2.04,-0.048265692202384095,-0.036517607459804036,67.12913128266446
2.05,0.029008168545877306,-0.06676590135821314,66.98326863063033
2.06,0.004062768703904385,0.05008586637187408,66.60199473638926
2.07,0.05220657784517135,-0.08218749749098753,66.06378001401019
2.08,0.12411758390427896,0.11710345550080016,65.5587998199427
2.09,0.031973989699727506,-0.18302277072116072,65.18860410180548
2.1,0.07122033537944386,0.08209597466527374,64.91903514994496
2.11,0.06646689599587574,-0.0809977007567082,64.70578025994571
2.12,0.07182975068502952,0.08745005996953072,64.57099578401544
2.13,0.19606921765042562,0.021004488501315855,64.35774089401619
2.14,0.1146107051371427,0.10641816559871464,63.965388823671255
2.15,0.2947132417812241,0.0447317810676171,63.494566339257325
2.16,0.1776242477346997,0.09635065477019725,63.07913473536268
2.17,0.29292562355150614,0.13430974673499355,62.87695802146729
2.18,0.30600773877807824,0.18888023156684355,62.98958614518983
2.19,0.4278907998952098,0.1776000432976184,63.53887904367275
2.2,0.48314445426830943,0.322320511457556,64.67254573163413
2.21,0.49029492718718115,0.12838364377002534,66.93895592621492
2.22,0.49980180595431745,0.2606341269264585,70.67507081724074
2.23,0.342857050922491,0.02159938686845552,75.38791156808998
2.24,0.225158641570381,0.07735966843458486,79.80810383352897
2.25,0.13244625974728294,-0.15574896865844992,83.33188701589755
2.26,0.07536435945742634,0.013888588802068327,85.9574147525117
2.27,0.09023409291371638,-0.15039488335419293,87.67360886726756
2.28,0.03794625969446695,-0.13973247415853587,88.43707983709172
2.29,0.09917218406230603,-0.1148153848579553,88.55986295557614
2.3,0.03493981085357771,-0.03830230256122303,88.35860942302273
2.31,-0.0280737317439793,-0.24530405361939792,87.76315745744041
2.32,0.07479557183887972,0.028715286567703047,86.6867280126823
2.33,0.1259052021339969,-0.15039488335419293,85.2281014923411
2.34,0.05041895961545342,-0.06795569809249247,83.57837643420837
2.35,0.03615864146474902,-0.23166715258804252,81.79479008148736
2.36,0.03493981085357771,-0.12193128455720283,80.13398684725078
2.37,0.1057132416755921,-0.12550067476004081,78.71967303132502
2.38,0.05931642307700402,0.02278918360273485,77.50845911063664
2.39,0.10213800521615624,-0.1509897817213326,76.33047971825982
2.4,0.02246711093259125,-0.03356599633053416,75.10726444012559
2.41,0.075973774763012,-0.2109143518574396,73.82773510013008
2.42,0.12472699920986462,-0.08694668442810485,72.4706585274076
2.43,0.0004875322444685262,-0.20201375705677307,71.18005101130822
2.44,0.10152858991057058,0.010342079305658787,69.93467938096629
2.45,0.17941186596441763,-0.12371597965862181,68.93579716893517
2.46,0.19724742057455788,0.0008465861378525999,68.26279797062584
2.47,0.2358843509486886,-0.1604852748891388,67.89260225248862
2.48,0.27569948424695156,-0.015764806729201115,67.81413183841963
2.49,0.4046923905959158,-0.15574896865844992,67.8473663667312
2.5,0.2798841360119731,-0.0038897200928362696,67.90368042859248
2.51,0.21268594164939456,-0.1486330689592024,67.93691495690405
2.52,0.12115176275042876,0.03228467677054104,67.9710726665576
2.53,0.04387790200216735,-0.1729552598926433,68.19540573266072
2.54,0.021898323314044635,-0.08397219259240653,68.75669998858947
2.55,0.09974097168085265,-0.17236036152550363,69.30599288707239
2.56,0.024864144467894835,-0.03178130122911517,69.58664001503678
2.57,0.039124462618599226,-0.22336145615451566,69.5534054867252
2.58,-0.08808082550064707,0.015078385536347657,69.31707106317624
2.59,-0.033395958746094044,0.06610236087178813,69.13797388283056
2.6,0.4254937663599062,0.36384899362519035,69.04842529265771
2.61,1.563272141888329,-0.14506367875636442,68.93579716893517
2.62,1.0847186162554316,-0.49264449011092776,68.76777816469333
2.63,0.08430245060601599,-0.7038105297390803,68.38650427045225
2.64,0.05277536546371796,-0.09465748249449205,67.79105230486992
2.65,0.15978869312455946,-0.09346768576021271,67.25283758249087
2.66,0.1205423474448431,0.006177790735681134,66.82632780249236
2.67,0.16039810843014513,-0.10472499332300944,66.57983838418154
2.68,0.14374075674413714,0.061343173934670814,66.45613208435513
2.69,0.1835558900424001,-0.025855198264146968,66.24287719435588
2.7,0.0587476354584574,-0.09641929688948259,65.70466247197683
2.71,0.15917927781897379,-0.047797795729029216,65.1101336877365
2.72,0.09917218406230603,0.06845907363391834,64.77317249791083
2.73,0.19009694765568616,-0.014575009994921787,64.66146755553028
2.74,0.21687059341441606,0.09337616293449892,64.62730984587672
2.75,0.24421302679169257,-0.060839798393244944,64.49252536994645
2.76,0.2828499571658233,0.18352614626258656,64.08909512349766
2.77,0.28163112655465194,0.02516877707129351,63.52780086756889
2.78,0.2614391660962472,0.1260040503014667,62.899114373675
2.79,0.28699398124380576,0.0328795751376807,62.52891865553777
2.8,0.38450043013751095,0.2398813261958556,62.585232717399045
2.81,0.4867196907277453,0.15979885369628533,63.01174249739755
2.82,0.5348634998690123,0.3205586970625655,63.841682523844845
2.83,0.634726354610982,0.2126075241331448,65.52464211028915
2.84,0.611568572998727,0.322320511457556,68.5766796269018
2.85,0.5271442393315939,0.06550746250464846,72.9977950736828
2.86,0.43321302689732455,0.1147238620322415,77.82234076691259
2.87,0.32680911454206873,-0.07269200432318135,81.99604361404077
2.88,0.25668572671267903,0.07973926190314352,85.18286560658368
2.89,0.21565176280324475,-0.08989829555737472,87.37080538709547
2.9,0.0700421324553116,-0.14446878038922473,88.75096149336767
2.91,0.11343250221301042,-0.22217165942023634,89.45811840133055
2.92,0.07239853830357613,-0.043633507159051566,89.5476669915034
2.93,0.11875472921512517,-0.18837685602541768,89.03160862133205
2.94,0.09498753229728452,-0.01635970509634078,87.99949188098937
2.95,0.11875472921512517,-0.1652444618262561,86.71996254099386
2.96,0.08251483237629806,-0.027617012659137515,85.27241419675653
2.97,0.11046668105916023,-0.22988245748662353,83.85902356217275
2.98,0.10392562344587417,0.02397898033701418,82.52410334165796
2.99,0.1205423474448431,-0.13202167609214868,81.26673035387017
3.0,0.08665885645428052,-0.060839798393244944,80.03243689963209
3.01,0.15146001728155548,-0.14979998498705327,78.74275256487472
3.02,0.08312424768188371,-0.03356599633053416,77.50845911063664
3.03,0.09616573522141679,-0.2032035537910524,76.47634237029393
3.04,0.09616573522141679,-0.028806809393416843,75.58916510064338
3.05,0.12830223566930046,-0.12550067476004081,74.4785779462317
3.06,0.1829871024238535,0.08152395700456253,73.01995142589051
3.07,0.09616573522141679,-0.17057566642408464,71.56132490554931
3.08,0.09677515052700245,-0.020501112959889985,70.41750322282606
3.09,0.1318368444416973,-0.12726248915503136,69.74358084317475
3.1,0.12830223566930046,-0.0691454948267718,69.37338512503753
3.11,0.1805900688885499,-0.28031153445492435,69.17120841114213
3.12,0.22694625980009894,0.006177790735681134,69.1268957067267
3.13,0.31433641462108225,-0.07152508829533047,69.025345759108
3.14,0.3167334481563858,0.06015337720039149,68.83517040265846
3.15,0.30600773877807824,-0.0887084988230954,68.75669998858947
3.16,0.2727336630931014,0.07321826057103566,68.91364081672745
3.17,0.1371996991308511,-0.1527744768227516,69.27275835876083
3.18,0.04684372315601756,-0.05786530655754662,69.67618860520962
3.19,0.06171345661230761,-0.21624555645526813,69.87836531910501
3.2,0.04745313846160321,-0.009243805397093253,69.87836531910501
3.21,0.013569647471040645,-0.22038696431881735,69.77773855282831
3.22,0.07418615653329406,0.04651647616903609,69.63187590079418
3.23,-0.08036156496322873,-0.13380637119356767,69.47493507265621
3.24,-0.046478073972666165,0.2078483371960275,69.36230694893366
3.25,0.21508297518469813,0.2630137203950172,69.24967882521112
3.26,1.2523484529785267,0.07202846383675633,68.99211123079644
3.27,1.2274030531365536,-0.5644212661769712,68.52036556504052
3.28,0.03437102323503109,-0.5976440519110786,68.00430719486917
3.29,0.005809759246583271,-0.28978414691630205,67.55564106266296
3.3,0.13780911443643673,-0.016954603463480447,67.25283758249087
3.31,0.10091917460498492,-0.12252618292434249,67.03958269249162
3.32,0.075973774763012,0.051252782399724965,66.70354468400795
3.33,0.09559694760287017,-0.020501112959889985,66.15332860418305
3.34,0.12887102328784708,0.10525124957086376,65.65942658621941
3.35,0.067645098920008,-0.12014658945578383,65.4350935201163
3.36,0.08011779884099447,0.035831186266950574,65.36770128215117
3.37,0.11103546867770683,-0.09168299065879372,65.25599633977062
3.38,0.08609006883573392,0.028120388200563385,64.87379926418754
3.39,0.14849419612770526,-0.011005619792083797,64.34666271791234
3.4,0.130658641517565,0.14202054480138074,63.9543106475674
3.41,0.2406377903322567,0.10939265743441297,63.774290285879715
3.42,0.19724742057455788,0.16574783736768198,63.6284276338456
3.43,0.1562134566651236,-0.08218749749098753,63.35978186332706
3.44,0.304829535853946,0.22802912026591918,62.93327208332856
3.45,0.2750900689413659,0.06431766577036914,62.495684127226205
3.46,0.3161240328508002,0.19894774239536095,62.371977827399796
3.47,0.3922196906749293,0.14556705429779027,62.776331255190584
3.48,0.5075210664917358,0.30454220256265147,64.0780169473938
3.49,0.5497332333253023,0.24226091966441424,66.66938697435438
3.5,0.44572635450535003,0.2048967260667576,70.62983493148332
3.51,0.3434664662280767,0.03049998166912204,75.34267568233255
3.52,0.29292562355150614,0.09337616293449892,79.89857560504382
3.53,0.17522721419939613,-0.06381429022894326,83.61253414386192
3.54,0.04802192608014983,-0.050154508491159426,86.32761047064892
3.55,0.026651762697612765,-0.22693084635735367,88.17858906133506
3.56,0.03315219262385978,-0.05965000165896561,89.1996276255739
3.57,0.09616573522141679,-0.062029595127524276,89.50243110574598
3.58,-0.004875322444685261,-0.03770740419408337,89.13223538760876
3.59,-0.0280737317439793,-0.2470887487208169,88.28013900895374
3.6,-0.031608340516376114,-0.022880706428448645,87.27017862081877
3.61,0.05098774723400003,-0.1071045867915681,85.96849292861555
3.62,-0.06727944973665662,-0.05253410195971809,84.16182704234484
3.63,-0.019135640595389653,-0.17531197265477352,82.34408297997028
3.64,-0.03636177989994424,-0.062029595127524276,80.6832797457337
3.65,-0.0019095012908350608,-0.19311316225610656,79.26988911114992
3.66,-0.010806964752385663,-0.07388180105746067,78.13622242318854
3.67,0.01889187447315539,-0.07211998666247013,77.1151838589497
3.68,-0.03758061051111556,-0.04184881205763257,75.92612629046903
3.69,0.00105631986301514,-0.1266675907878917,74.61336242216196
3.7,-0.04765627689679843,-0.02109601132702965,73.16581407792462
3.71,0.02364531385672352,-0.10353519658873012,71.75242344334085
3.72,-0.009628761828253393,-0.027617012659137515,70.5855222270679
3.73,-0.03457416167022632,-0.22988245748662353,69.63187590079418
3.74,-0.03936822874083349,-0.024070503162727973,68.93579716893517
3.75,0.01771367154902312,-0.17236036152550363,68.45389650841737
3.76,0.0789395959168622,-0.006269313561394928,68.173249380453
3.77,0.10331620814028851,-0.13675798232283753,68.04954308062659
3.78,0.17404901127526384,0.007367587469960464,68.13909167079943
3.79,0.20021324172840807,-0.1302369809907297,68.3523465607987
3.8,0.20732308696024077,0.051252782399724965,68.54344509859023
3.81,0.10213800521615624,-0.16641137785410698,68.7003859267282
3.82,0.02364531385672352,0.06964887036819767,69.04842529265771
3.83,-0.08454621672825025,-0.18242787235402105,69.47493507265621
3.84,-0.13090240763979927,-0.048392694096168885,69.82205125724374
3.85,-0.08572441965238252,-0.15217957845561195,70.00207161893142
3.86,-0.052409716280366565,-0.030591504494835838,69.86728714300115
3.87,-0.11603267418350922,-0.1071045867915681,69.6540322530019
3.88,-0.19391595023735628,0.0649125641375088,69.46293371521037
3.89,-0.12493013764505984,0.09456595966877825,69.26168018265696
3.9,0.22755567510568459,0.11117735253583197,69.09273799707314
3.91,1.4378138443117618,-0.15039488335419293,68.83517040265846
3.92,1.0193486678096102,-0.3692717210487327,68.40866062265997
3.93,-0.07024527089050682,-0.6533814527707795,67.91475860469633
3.94,-0.16775171978421205,-0.07211998666247013,67.5445628865591
3.95,0.005809759246583271,-0.1148153848579553,67.17436716842188
3.96,0.018323086854608775,0.07321826057103566,66.83740597859622
3.97,0.005240971628036656,-0.011600518159223463,66.50136797011255
3.98,-0.11603267418350922,-0.03473291235838504,66.14225042807918
3.99,-0.07024527089050682,-0.0691454948267718,65.79421106214967
4.0,-0.07739574380937853,0.034664270239099695,65.48032940587372
4.01,-0.031608340516376114,-0.06974039319391147,65.22183863011705
4.02,-0.07024527089050682,-0.062029595127524276,65.16552456825578
4.03,0.010603826317190444,-0.05610349216255608,65.04274144977136
4.04,0.04444668962071397,0.19183184269611345,64.57099578401544
4.05,0.01592605331930519,0.03168977840340137,64.11125147570537
4.06,0.02839875324029165,0.09159146783307992,63.83060434774099
4.07,0.09795335345113472,0.028120388200563385,63.61734945774174
4.08,0.05098774723400003,0.07321826057103566,63.438252277396046
4.09,0.0944187446787379,0.003226179606411259,63.21391921129294
4.1,0.18595292357770368,0.21320242250028446,62.899114373675
4.11,0.29117863300882724,0.19480633453181176,62.61939042705261
4.12,0.3208774722343683,0.3632540952580507,62.517840479433914
4.13,0.30840477231338187,0.12540915193432703,63.370860039430916
4.14,0.4338224422029102,0.3211535954297052,65.85052512401094
4.15,0.3149458299266679,0.1147238620322415,69.88944349520887
4.16,0.1918845658854041,0.08923475507094972,74.5016574797814
4.17,0.11522012044272835,-0.08040280238956854,78.8996933930127
4.18,0.053384780769303614,-0.027617012659137515,82.52410334165796
4.19,0.04505610492629963,-0.036517607459804036,85.28349237286038
4.2,-0.02271087705482551,-0.031186402861975503,87.34864903488776
4.21,-0.05123151335623429,-0.0887084988230954,88.63833336964512
4.22,-0.01499161651740718,0.06786417526677868,89.2448635113313
4.23,-0.23966272584331966,-0.2886172308884512,89.05376497353977
4.24,-0.12793658648594908,-0.11955169108864416,88.23490312319633
4.25,-0.11542325887792357,-0.1735272775533545,87.07908008302724
4.26,-0.11245743772407338,-0.07211998666247013,85.7552380386163
4.27,-0.11960791064294508,-0.15515407029131026,84.29661151827511
4.28,-0.08690262257651479,-0.02702211429199785,82.5914955796231
4.29,0.05752880484728609,0.012126774407077781,80.80698604556011
4.3,-0.08511500434679686,0.033474473504820364,79.04555604504681
4.31,-0.09344368018980086,-0.168196072955526,77.58692952470562
4.32,-0.12078611356707736,-0.15634386702558958,76.36371424657139
4.33,-0.1053475924922407,-0.1711705647912243,75.3315975062287
4.34,-0.11066981949435545,-0.05193920359257842,74.15361811385189
4.35,-0.07146410150167813,-0.13142677772500902,72.67191205996099
4.36,-0.05838198627510601,-0.03473291235838504,71.04526653537796
4.37,-0.044690455742948235,-0.08040280238956854,69.67618860520962
4.38,-0.038758813435247834,0.006772689102820799,68.86840493097003
4.39,0.07479557183887972,-0.025855198264146968,68.40866062265997
4.4,-0.023889079978957783,-0.09346768576021271,68.20648390876457
4.41,0.0016657351686007978,-0.18302277072116072,68.03846490452274
4.42,0.10331620814028851,-0.0448233038933309,68.26279797062584
4.43,0.1716926054269993,-0.09168299065879372,68.72254227893592
4.44,0.17108319012141365,0.028120388200563385,69.03734711655386
4.45,0.18416530534798575,-0.06381429022894326,69.1268957067267
4.46,0.10806964752385663,0.013888588802068327,69.24967882521112
4.47,-0.040546431664965764,-0.12845228588931068,69.5303259531755
4.48,-0.08511500434679686,-0.11303068975653631,69.93467938096629
4.49,-0.10713521072195863,-0.18540236418971937,70.31595327520736
4.5,-0.052409716280366565,0.0002516877707129351,70.47289410334534
4.51,-0.1166420894890949,-0.11362558812367597,70.36118916096478
4.52,-0.089868443730365,-0.024070503162727973,70.27164057079194
4.53,-0.1326900258695172,-0.031186402861975503,70.10269838520811
4.54,-0.1475191316387682,0.18176433186759602,69.66511042910577
4.55,0.4266719692840385,0.1396409513328221,69.19428794469184
4.56,1.5590874901233076,-0.15396427355703093,68.84624857876231
4.57,0.6543495274508402,-0.6344133471415956,68.50928738893667
4.58,-0.06610124681252434,-0.4404535987476364,68.16217120434914
4.59,-0.0785739467335108,-0.1865921609239987,67.73566142435064
4.6,0.04924075669132114,-0.07328690269032101,67.28699529214443
4.61,0.037336844388881296,0.0008465861378525999,66.90479821656135
4.62,0.00105631986301514,0.04237506830548689,66.45613208435513
4.63,0.0706109200738582,-0.032971097963394494,66.19856448994045
4.64,-0.020313843519521924,-0.011005619792083797,66.12009407587146
4.65,0.027829965621745036,-0.020501112959889985,66.04070048046049
4.66,0.01710425624343746,0.04118527157120756,65.78313288604582
4.67,0.00105631986301514,-0.0673607997253528,65.42401534401245
4.68,0.04802192608014983,0.02990508330198238,65.04274144977136
4.69,0.056960017228739473,-0.027617012659137515,64.76209432180698
4.7,0.11639832336686062,0.11353406529796217,64.61623166977286
4.71,0.18416530534798575,0.17581534819619937,64.47036901773875
4.72,0.15917927781897379,0.11710345550080016,64.22387959942792
4.73,0.12293938098014669,0.05720176607112161,63.71889940536043
4.74,0.1835558900424001,0.13311995000071422,63.19083967774324
4.75,0.24835705086967505,0.08980677273166093,62.9221939072247
4.76,0.32741852984765435,0.18769043483256423,62.977584787743986
4.77,0.46356190911549033,0.2932620142934263,63.54995721977661
4.78,0.40765821174976596,0.27429390866424236,64.87379926418754
4.79,0.44629514212389665,0.20549162443389726,67.49932700080169
4.8,0.39457609652319386,0.2078483371960275,71.60656079130673
4.81,0.2709460448633834,0.033474473504820364,76.4874205463978
4.82,0.21983641456826628,0.10641816559871464,80.87437828352523
4.83,0.12769282036371482,-0.021690909694169314,84.45355234641309
4.84,0.06825451422559367,-0.0032948217256966047,87.00060966895825
4.85,-0.06549183150693869,-0.224551252888795,88.66141290319483
4.86,-0.048265692202384095,-0.05786530655754662,89.53658881539954
4.87,-0.06845765266078889,-0.11838477506079328,89.76092188150265
4.88,-0.04529987104853389,-0.08218749749098753,89.6261374055724
4.89,-0.00369711952055299,-0.13083187935786936,88.88574596929794
4.9,-0.036971195205529904,-0.07388180105746067,87.561903924887
4.91,-0.05895077389365262,-0.12133638619006316,86.0580415187884
4.92,-0.0030877042149673323,-0.05253410195971809,84.53202276048208
4.93,-0.08332738611707893,-0.09939378872518091,83.00600400217574
4.94,-0.06906706796637455,-0.10058358545946024,81.39043665369658
4.95,-0.0006906706796637454,-0.11541028322509496,79.86441789539026
4.96,-0.07739574380937853,-0.07923588636171766,78.66428215080573
4.97,-0.013772785906235865,-0.05312900032685775,77.51953728674049
4.98,-0.00012188306111713155,-0.006864211928534593,76.31847836081397
4.99,-0.13923108348280328,-0.2340467460566012,74.93924543588376
5.0,-0.07621754088524627,-0.12014658945578383,73.524931619958
5.01,-0.05301913158595222,-0.16641137785410698,72.11154098537422
5.02,-0.02271087705482551,-0.049559610124019764,70.87724753113613
5.03,-0.06016960450482394,-0.1468483738577834,69.86728714300115
5.04,-0.046478073972666165,-0.0448233038933309,69.19428794469184
5.05,0.05574118661756816,0.048301171270455086,68.77885634079719
5.06,0.06703568361442235,-0.009243805397093253,68.45389650841737
5.07,0.009994411011604786,-0.20793986002174128,68.34126838469483
5.08,0.061104041306721944,-0.08278239585812719,68.26279797062584
5.09,0.130658641517565,-0.18361766908830038,68.2738761467297
5.1,0.15682287197070927,-0.0252602998970073,68.31911203248711
5.11,0.1990350388042758,-0.16167507162341813,68.48713103672895
5.12,0.11400128983155704,0.013888588802068327,68.83517040265846
5.13,-0.007231728292949805,-0.0887084988230954,69.26168018265696
5.14,0.05159716253958569,0.0649125641375088,69.62079772469033
5.15,-0.13504643171778175,-0.1735272775533545,69.71034631486317
5.16,-0.046478073972666165,-0.03830230256122303,69.54140412927936
5.17,-0.18676547731848456,-0.22098186268595701,69.26168018265696
5.18,-0.06788886504224227,-0.15515407029131026,69.08165982096928
5.19,-0.215895528925479,-0.11007907862726643,68.96995487858872
5.2,-0.18973129847233478,0.06550746250464846,68.91364081672745
5.21,0.1086790628294423,0.26717800896499483,68.63299368876307
5.22,1.2975264409659433,-0.012195416526363127,68.10585714248786
5.23,1.0894720556389998,-0.5169666810443687,67.46609247249012
5.24,-0.08214918319294666,-0.6154223608059832,67.06173904469932
5.25,-0.16535468624890845,-0.27555234751780705,66.86048551214593
5.26,0.024254729162309176,-0.13497328722141855,66.68046515045825
5.27,0.01710425624343746,-0.0015330073307060592,66.37766167028614
5.28,-0.07739574380937853,-0.05134430522543876,65.81636741435739
5.29,-0.01023817713383905,-0.03356599633053416,65.3344667538396
5.3,-0.01974505590097531,-0.0015330073307060592,65.0085837401178
5.31,-0.020923258825107583,0.019837572473464973,64.9079569738411
5.32,-0.03814939812966217,-0.03473291235838504,64.88580062163338
5.33,-0.04172463458909803,-0.09582439852234292,64.75101614570312
5.34,-0.03814939812966217,0.007962485837100129,64.31342818960077
5.35,0.0028439380927330693,0.03228467677054104,63.68474169570687
5.36,0.08312424768188371,0.12302955846576837,63.17976150163938
5.37,0.01710425624343746,0.040590373204067894,62.94435025943242
5.38,0.1419531385144192,0.15327785236417746,62.95542843553628
5.39,0.08665885645428052,0.04949096800473442,62.83172213570987
5.4,0.07182975068502952,0.0447317810676171,62.32766512298437
5.41,0.14374075674413714,0.11117735253583197,61.698978629090476
5.42,0.32266509046408626,0.22386483169594154,61.373095615368676
5.43,0.23230911448925273,0.1752204498290597,61.67682227688276
5.44,0.35118572676549503,0.30749381369192136,62.93327208332856
5.45,0.3933978935990616,0.23928642782871593,65.51356393418529
5.46,0.3862880483672289,0.16810455012981218,69.76666037672446
5.47,0.2923568359329595,0.1396409513328221,74.59120606995424
5.48,0.20854191757141208,0.10227675773516544,79.02339969283909
5.49,0.03969325023714584,-0.06855059645963214,82.80382728828036
5.5,0.0075973774763012,-0.05846020492468629,85.60937538658219
5.51,-0.13683404994749968,-0.19013867042040825,87.47143215337218
5.52,-0.13565584702336742,-0.10353519658873012,88.50447207505685
5.53,-0.10177235603280484,-0.1207414878229235,88.85158825964437
5.54,-0.13325881348806382,-0.13735288068997722,88.60509884133356
5.55,-0.12196431649120963,-0.15039488335419293,87.97641234743966
5.56,-0.144553310484918,-0.07152508829533047,87.02276602116596
5.57,-0.08332738611707893,-0.06262449349466394,85.7552380386163
5.58,-0.12257373179679529,-0.0904931939245144,84.21814110420613
5.59,-0.1499161651740718,-0.10650968842442844,82.51210198421212
5.6,-0.14337510756078575,-0.1527744768227516,80.71743745538726
5.61,-0.16953933801392998,-0.1865921609239987,78.98924198318554
5.62,-0.12196431649120963,-0.09879889035804125,77.55277181505205
5.63,-0.10888220126463752,-0.03889720092836269,76.42002830843266
5.64,-0.15052558047965744,-0.09998868709232057,75.49961651047053
5.65,-0.13683404994749968,-0.1207414878229235,74.42226388437042
5.66,-0.12078611356707736,-0.09701419525662225,72.89716830740609
5.67,-0.1855872743943523,-0.15810568142058012,71.29267913503078
5.68,-0.13565584702336742,-0.05312900032685775,69.92360120486244
5.69,-0.16478589863036186,-0.08989829555737472,68.8794831070739
5.7,-0.0726423044258104,-0.07447669942460033,68.19540573266072
5.71,-0.10949161657022317,-0.11719497832651396,67.77997412876607
5.72,-0.005484737750270919,-0.19311316225610656,67.52240653435139
5.73,0.008206792781886857,0.009747180938519123,67.27499393469859
5.74,0.03437102323503109,-0.07507159779174,67.11805310656061
5.75,0.021288908008458975,-0.07745119126029866,67.06173904469932
5.76,0.09498753229728452,-0.02999660612769617,67.241759406387
5.77,0.02364531385672352,-0.032971097963394494,67.56671923876682
5.78,-0.04412166812440162,-0.062029595127524276,67.85844454283506
5.79,-0.13923108348280328,-0.07328690269032101,68.20648390876457
5.8,-0.22836822884646546,-0.16286486835769745,68.54344509859023
5.81,-0.19330653493177063,-0.1266675907878917,68.72254227893592
5.82,-0.2170737318496113,-0.1735272775533545,68.71146410283205
5.83,-0.22483362007406865,-0.0887084988230954,68.56560145079794
5.84,-0.3003198625926121,-0.042443710424772234,68.43081697486768
5.85,-0.30803912313003046,0.01924267410632531,68.31911203248711
5.86,-0.06492304388839207,0.22743422189877952,68.1501698469033
5.87,0.9426842223669344,-0.031186402861975503,67.80305366231578
5.88,1.2779438958131242,-0.4113951015835066,67.45501429638625
5.89,-0.11306685302965903,-0.5994058663060692,67.07374040214518
5.9,-0.21768314715519693,-0.2601307513850326,66.7146228601118
5.91,-0.16299828040064393,-0.1604852748891388,66.34442714197458
5.92,-0.1689299227083443,-0.14625347549064374,65.95115189028765
5.93,-0.16356706801919052,-0.009243805397093253,65.60311252435814
5.94,-0.12196431649120963,-0.007459110295674258,65.32338857773574
5.95,-0.12614896825623115,-0.024070503162727973,65.05381962587522
5.96,-0.14158748933106782,-0.08989829555737472,64.7842506740147
5.97,-0.12671775587477777,0.023384081969874515,64.52668307960002
5.98,-0.10473817718665504,-0.02702211429199785,64.3023500134969
5.99,-0.07739574380937853,0.11353406529796217,64.02170288553252
6.0,-0.10412876188106938,-0.1029631789280189,63.706898047914585
6.01,-0.08454621672825025,0.023384081969874515,63.438252277396046
6.02,-0.01795743767125738,0.1390460529656824,63.17976150163938
6.03,-0.11899849533735943,-0.04660799899474989,62.87695802146729
6.04,-0.00012188306111713155,0.04354198433333777,62.48460595112235
6.05,0.03493981085357771,0.15979885369628533,62.15872293740055
6.06,0.07954901122244785,0.15092113960204726,61.833763105020736
6.07,0.12769282036371482,0.2108228290317258,61.66482091943691
6.08,0.20854191757141208,0.20430182769961794,61.68790045298662
6.09,0.30007609647037786,0.29385691266056596,62.14764476129669
6.1,0.3095829752375141,0.16869944849695184,63.50564451536118
6.11,0.23767196917840652,0.21320242250028446,66.20964266604432
6.12,0.23230911448925273,0.12895566143073656,70.47289410334534
6.13,0.06406986246057216,0.07498007496602621,75.39898974419383
6.14,-0.020313843519521924,-0.06676590135821314,79.90965378114767
6.15,-0.13504643171778175,-0.0673607997253528,83.297729306244
6.16,-0.14873796224993951,-0.10888928189298709,85.58721903437447
6.17,-0.16060124686534033,-0.05786530655754662,87.05692373081952
6.18,-0.1974505590097531,-0.18007115959189082,87.85362922895524
6.19,-0.16060124686534033,-0.07328690269032101,88.03272640930093
6.2,-0.1974505590097531,-0.11067397699440609,87.67360886726756
6.21,-0.1915189167020527,-0.08397219259240653,86.92213925488926
6.22,-0.1826214532405021,-0.09227788902593338,85.78847256692788
6.23,-0.1831902408590487,-0.11067397699440609,84.29661151827511
6.24,-0.17664918324576265,-0.12133638619006316,82.43363157014313
6.25,-0.17664918324576265,-0.03949209929550236,80.53741709369957
6.26,-0.17189574386219453,-0.11541028322509496,78.83230115504756
6.27,-0.23194346530590132,-0.1266675907878917,77.30628239674124
6.28,-0.10177235603280484,-0.12609557312718048,75.88089040471162
6.29,-0.10116294072721918,0.010936977672798451,74.48965612233556
6.3,-0.2170737318496113,-0.12550067476004081,73.17689225402849
6.31,-0.2551418746051954,-0.17057566642408464,71.8419720335137
6.32,-0.23194346530590132,-0.09641929688948259,70.47289410334534
6.33,-0.19805997431533875,-0.09701419525662225,69.09273799707314
6.34,-0.13147119525834589,-0.10829438352584743,67.8704459002809
6.35,-0.14812854694435387,-0.07211998666247013,66.96111227842263
6.36,-0.06845765266078889,-0.040681896029781686,66.47828843656285
6.37,0.05041895961545342,0.07202846383675633,66.38873984639001
6.38,-0.0696764832719602,-0.12904718425645034,66.41181937993971
6.39,-0.06252601035308848,-0.1189567927215045,66.31026943232102
6.4,0.011172613935737059,-0.1735272775533545,66.23179901825203
6.41,0.033761607929445436,0.007367587469960464,66.38873984639001
6.42,0.024254729162309176,-0.12014658945578383,66.87156368824978
6.43,-0.10888220126463752,-0.03949209929550236,67.47717064859397
6.44,-0.08036156496322873,-0.01635970509634078,67.9710726665576
6.45,-0.14337510756078575,-0.01990621459275032,68.19540573266072
6.46,-0.19391595023735628,-0.1652444618262561,68.26279797062584
6.47,-0.29674462613317626,-0.14979998498705327,68.31911203248711
6.48,-0.19627235608562082,-0.1029631789280189,68.38650427045225
6.49,-0.34964187465801133,-0.1889488736861289,68.31911203248711
6.5,-0.25217605345134514,0.10346655446944476,68.06062125673046
6.51,-0.09880653487895463,0.30156771072695315,67.71258189080093
6.52,1.0033007314291877,-0.03473291235838504,67.35346434876757
6.53,1.1953071803757092,-0.3372387320489046,66.97219045452648
6.54,-0.18201203793491644,-0.6492400449072303,66.52352432232027
6.55,-0.2759432503691858,-0.2666517527171405,66.14225042807918
6.56,-0.0696764832719602,-0.13616308395569787,65.87268147621866
6.57,-0.1142450559537913,0.004987994001401805,65.58095617215042
6.58,-0.07800515911496418,0.009747180938519123,65.18860410180548
6.59,-0.20756685308247502,-0.030591504494835838,64.81840838366826
6.6,-0.16182007747651164,-0.09582439852234292,64.49252536994645
6.61,-0.144553310484918,0.03761588136836957,64.22387959942792
6.62,0.015357265700758575,0.12421935520004769,64.08909512349766
6.63,-0.16478589863036186,-0.018144400197759775,63.94323247146354
6.64,-0.07975214965764307,-0.040681896029781686,63.752133933672
6.65,-0.10412876188106938,-0.004484618459975934,63.39301639163863
6.66,0.004062768703904385,0.02990508330198238,62.94435025943242
6.67,-0.040546431664965764,0.07735966843458486,62.65262495536418
6.68,0.03615864146474902,0.12007794733649849,62.55199818908748
6.69,0.05159716253958569,0.15744214093415512,62.40613553705336
6.7,0.16393271720254193,0.1503262412349076,62.09133069943542
6.71,0.0706109200738582,0.17405353380120883,61.68790045298662
6.72,0.1865217111962503,0.18471594299686592,61.38509697281452
6.73,0.20614488403610848,0.24818702262938244,61.50788009129894
6.74,0.3292061480773723,0.28200470673062955,62.383056003503654
6.75,0.30840477231338187,0.306304016957642,64.66146755553028
6.76,0.4278907998952098,0.16336824389912333,68.41973879876382
6.77,0.19367218411512202,0.12243466009862869,73.03102960199436
6.78,0.08251483237629806,0.02754837053985217,77.62016405301719
6.79,-0.005484737750270919,0.005582892368541469,81.57045701538426
6.8,-0.02925193466811157,-0.06974039319391147,84.57725864623949
6.81,-0.17725859855134832,-0.10472499332300944,86.52978718454432
6.82,-0.081539767887361,-0.08811360045595573,87.65145251505986
6.83,-0.1957035684670742,-0.10472499332300944,88.17858906133506
6.84,-0.04765627689679843,-0.09820399199090159,88.1675108852312
6.85,-0.15706663809294352,-0.022880706428448645,87.67360886726756
6.86,-0.18440907147022004,-0.10829438352584743,86.8095111311667
6.87,-0.2295870594576368,-0.15810568142058012,85.6546112723396
6.88,-0.17189574386219453,-0.14565857712350408,84.08335662827585
6.89,-0.18440907147022004,-0.015764806729201115,82.23237803758973
6.9,-0.1475191316387682,-0.1379477790571169,80.42571215131902
6.91,-0.17368336209191246,-0.09465748249449205,78.78706526929015
6.92,-0.10473817718665504,-0.10353519658873012,77.40690916301794
6.93,-0.08572441965238252,0.02159938686845552,76.19569524232956
6.94,-0.1326900258695172,-0.19608765409180487,75.10726444012559
6.95,-0.1713269562436479,-0.040086997662642024,73.96251957606036
6.96,-0.20638865015834276,-0.14268408528780574,72.68391341740684
6.97,-0.17368336209191246,-0.016954603463480447,71.3148354872385
6.98,-0.13386822879364949,-0.10236828056087924,70.01314979503528
6.99,-0.21471732600134674,-0.09406258412735238,68.75669998858947
7.0,-0.1201766982614917,-0.14151716925995486,67.77997412876607
7.01,-0.18440907147022004,-0.11541028322509496,67.11805310656061
7.02,-0.09640950134365105,-0.1729552598926433,66.39981802249386
7.03,-0.017348022365671723,-0.03473291235838504,65.81636741435739
7.04,-0.020313843519521924,-0.15158468008847226,65.69358429587297
7.05,0.04444668962071397,0.05601196933684228,66.05270183790634
7.06,0.09795335345113472,-0.05193920359257842,66.63615244604281
7.07,0.004062768703904385,-0.040086997662642024,66.83740597859622
7.08,0.009994411011604786,-0.10236828056087924,66.5909165602854
7.09,-0.1285053741044957,-0.09760909362376191,66.45613208435513
7.1,-0.1814026226293308,-0.22098186268595701,66.73677921231952
7.11,-0.17311457447336584,-0.062029595127524276,67.32022982045599
7.12,-0.17368336209191246,-0.11243579138939663,67.81413183841963
7.13,-0.19034071377792042,-0.04541820226047056,67.8704459002809
7.14,-0.16060124686534033,-0.12252618292434249,67.48824882469783
7.15,-0.32347764420486713,-0.032971097963394494,67.06173904469932
7.16,-0.3246964748160384,-0.054913695428276746,66.84940733604206
7.17,-0.1552790198632256,0.2244597300630812,66.74785738842337
7.18,1.0157734313501743,-0.08694668442810485,66.64723062214668
7.19,1.1233555466295624,-0.30937003161905413,66.29919125621716
7.2,-0.1083134136460909,-0.6794883388056394,65.70466247197683
7.21,-0.14577214109608932,-0.17531197265477352,65.27815269197832
7.22,-0.0340053740516797,-0.09998868709232057,64.98642738791008
7.23,-0.14337510756078575,-0.0809977007567082,64.80733020756439
7.24,-0.11603267418350922,-0.10948418026012677,64.61623166977286
7.25,-0.1600324592467937,0.024573878704153843,64.32450636570462
7.26,-0.10234114365135145,-0.01871641785847099,63.965388823671255
7.27,-0.13683404994749968,0.03049998166912204,63.59519310553402
7.28,-0.12318314710238094,-0.11067397699440609,63.314545977569644
7.29,-0.08393680142266459,0.08863985670381005,63.168683325535525
7.3,-0.05838198627510601,-0.020501112959889985,63.05697838315496
7.31,-0.08036156496322873,-0.01754950183062011,62.776331255190584
7.32,-0.07621754088524627,-0.05965000165896561,62.36089965129594
7.33,-0.09880653487895463,0.15208805562989813,61.90115534298587
7.34,0.0075973774763012,0.040590373204067894,61.53095962484864
7.35,0.031973989699727506,0.19540123289895142,61.25031249688426
7.36,0.09498753229728452,0.0904016710988006,60.99182172112759
7.37,0.05574118661756816,0.163963142266263,60.75641047892063
7.38,0.17880245065883196,0.1752204498290597,60.61054782688651
7.39,0.19960382642282243,0.24404561476583325,60.723175950609054
7.4,0.23113091156512044,0.16929434686409153,61.57527232926407
7.41,0.273343078398687,0.322320511457556,63.819526171637136
7.42,0.2953226570868097,0.12302955846576837,67.70150371469708
7.43,0.24242540856197464,0.18888023156684355,72.62759935554557
7.44,0.0819054170707124,-0.00034321059642672966,77.36259645860251
7.45,-0.01677923474712511,-0.008054008662813923,81.05347546387092
7.46,-0.08929965611181838,-0.17769156612333217,83.70208273403478
7.47,-0.19212833200763835,-0.06617100299107348,85.66568944844346
7.48,-0.14097807402548215,-0.0904931939245144,86.86582519302799
7.49,-0.2057792348527571,-0.09760909362376191,87.46035397726831
7.5,-0.1831902408590487,-0.09346768576021271,87.51666803912958
7.51,-0.24502558053247345,-0.08337729422526687,87.04584555471565
7.52,-0.12911478941008134,-0.07626139452601934,86.04696334268453
7.53,-0.255710662223742,-0.1302369809907297,84.7000417647239
7.54,-0.25871711106463124,-0.2565842418886231,83.23033706827886
7.55,-0.2301558470761834,-0.043633507159051566,81.69324013386867
7.56,-0.17250515916778017,-0.16998076805694498,80.16722137556235
7.57,-0.1974505590097531,-0.013385213260642457,78.50641814132577
7.58,-0.1475191316387682,-0.10948418026012677,76.90192896895046
7.59,-0.12257373179679529,-0.009838703764232917,75.53377422012409
7.6,-0.15466960455763992,-0.1391375757913962,74.38902935605886
7.61,-0.26168293221848143,-0.06381429022894326,73.33475626350845
7.62,-0.22836822884646546,-0.18242787235402105,72.19001139944321
7.63,-0.21471732600134674,-0.11303068975653631,70.76461940741359
7.64,-0.1499161651740718,-0.1071045867915681,69.27275835876083
7.65,-0.20163521077477461,-0.03356599633053416,67.99322901876532
7.66,-0.13622463464191403,-0.12431087802576149,67.08481857824903
7.67,-0.09226547726566858,0.012698792067788997,66.53460249842412
7.68,0.011782029241322716,-0.06557610462393382,66.17548495639076
7.69,0.04684372315601756,0.023384081969874515,65.82836877180323
7.7,0.008206792781886857,-0.20082396032249375,65.53664346773499
7.71,0.07122033537944386,0.051252782399724965,65.52464211028915
7.72,0.0819054170707124,-0.12431087802576149,65.7609765338381
7.73,-0.05956018919923828,-0.07388180105746067,66.14225042807918
7.74,-0.10234114365135145,-0.12845228588931068,66.47828843656285
7.75,-0.20224462608036028,-0.006269313561394928,66.7146228601118
7.76,-0.10177235603280484,-0.06262449349466394,66.93895592621492
7.77,-0.17843680147548058,-0.010433602131372581,67.17436716842188
7.78,-0.14516272579050368,-0.17471707428763386,67.36546570621341
7.79,-0.14695034402022158,-0.02702211429199785,67.46609247249012
7.8,-0.32766229596988866,-0.13437838885427889,67.45501429638625
7.81,-0.3240870595104528,0.1046563512037241,67.16328899231802
7.82,0.16454213250812758,0.13609444183641253,66.8152496263885
7.83,1.2630741623568342,-0.06262449349466394,66.50136797011255
7.84,1.044294067651583,-0.4766279956110137,66.22072084214817
7.85,-0.02271087705482551,-0.38469331718150707,65.96223006639151
7.86,-0.14276569225520008,-0.20201375705677307,65.65942658621941
7.87,-0.07442992265552834,-0.032971097963394494,65.25599633977062
7.88,-0.0310395528978295,-0.08159259912384786,64.86272108808369
7.89,-0.032827171127547426,0.10346655446944476,64.47036901773875
7.9,-0.1166420894890949,-0.10888928189298709,64.10017329960151
7.91,-0.13147119525834589,0.07973926190314352,63.86476205739455
7.92,-0.08690262257651479,-0.0632193918618036,63.67366351960301
7.93,-0.09405309549538651,0.06312786903608981,63.41517274384635
7.94,-0.057772570969520355,-0.05253410195971809,63.09021291146654
7.95,-0.054197334510084495,0.069053972001058,62.74217354553702
7.96,0.00105631986301514,-0.02702211429199785,62.42829188926107
7.97,0.07658319006859765,0.2078483371960275,62.27135106112309
7.98,0.026651762697612765,-0.047202897361889554,62.18180247095025
7.99,0.006419174552168928,0.17226883869978984,61.9454680474013
8.0,0.09263112644901997,0.10525124957086376,61.5420378009525
8.01,0.07954901122244785,0.1260040503014667,61.048135782988865
8.02,0.16218572665986306,0.12243466009862869,60.700096417059356
8.03,0.19306276880953638,0.2487819209965221,60.655783712643924
8.04,0.30600773877807824,0.19599613126609108,60.913351307058605
8.05,0.3309937663070902,0.32291540982469574,61.586350505367925
8.06,0.40826762705535163,0.15979885369628533,63.236075563500656
8.07,0.3999389512123476,0.30689891532478164,66.35550531807843
8.08,0.2750900689413659,0.12183976173148903,70.92156023555157
8.09,0.0706109200738582,0.01686308063776665,75.7350277526775
8.1,0.02839875324029165,-0.06024490002610528,79.89857560504382
8.11,-0.09405309549538651,0.01686308063776665,82.87121952624548
8.12,-0.09047785903595065,-0.14208918692066608,84.8015917123426
8.13,-0.13029299233421363,-0.040681896029781686,85.99064928082326
8.14,-0.1053475924922407,-0.11422048649081563,86.50670765099461
8.15,-0.1285053741044957,0.02278918360273485,86.63041395082102
8.16,-0.020313843519521924,-0.08159259912384786,86.37192317506435
8.17,-0.10591638011078731,-0.015169908362061451,85.6546112723396
8.18,-0.14873796224993951,-0.2364034588187314,84.38616010844795
8.19,-0.13801225287163196,0.017457979004906317,82.74843640776108
8.2,-0.1053475924922407,-0.09108809229165406,80.96392687369809
8.21,-0.12318314710238094,-0.053723898693997414,79.21357504928865
8.22,-0.10177235603280484,-0.09108809229165406,77.57585134860176
8.23,-0.16535468624890845,-0.006269313561394928,76.01567488064188
8.24,-0.06252601035308848,-0.12431087802576149,74.64752013181553
8.25,-0.05184092866181995,-0.009243805397093253,73.36799079182002
8.26,-0.05301913158595222,-0.1029631789280189,72.08846145182451
8.27,-0.11542325887792357,0.010342079305658787,70.75354123130973
8.28,-0.0280737317439793,-0.07269200432318135,69.37338512503753
8.29,-0.1552790198632256,-0.030591504494835838,68.01630855231502
8.3,-0.05005331043210202,-0.11600518159223462,66.87156368824978
8.31,-0.0042659071390996044,0.0826908730324134,66.10809271842562
8.32,0.03851504731301357,-0.10058358545946024,65.60311252435814
8.33,0.03315219262385978,-0.07507159779174,65.34554492994346
8.34,0.11164488398329249,-0.15039488335419293,65.27815269197832
8.35,0.08844647468399845,-0.043633507159051566,65.3344667538396
8.36,0.17823366304028537,-0.04601310062761022,65.45724987232401
8.37,0.15442583843540567,0.05363237586828362,65.69358429587297
8.38,0.01889187447315539,-0.08930339719023506,66.05270183790634
8.39,-0.040546431664965764,-0.035327810725524704,66.5124461462164
8.4,-0.035183576975811974,-0.0887084988230954,67.0174263402839
8.41,-0.1201766982614917,-0.02109601132702965,67.4439361202824
8.42,-0.14812854694435387,-0.22633594799021398,67.6230333006281
8.43,-0.1397998711013499,-0.0809977007567082,67.61195512452423
8.44,-0.1944847378559029,-0.05312900032685775,67.47717064859397
8.45,-0.1641764833247762,0.08507046650097205,67.34238617266371
8.46,-0.04172463458909803,0.17938473839903737,67.23068123028315
8.47,0.9497940675987671,0.09099656946594026,67.05066086859547
8.48,1.4621904565351882,-0.38647801228292605,66.66938697435438
8.49,0.026042347392027106,-0.47781779234529304,66.09701454232177
8.5,-0.05301913158595222,-0.35622971838451695,65.58095617215042
8.51,0.01889187447315539,-0.049559610124019764,65.18860410180548
8.52,-0.029820722286658184,-0.11067397699440609,64.95319285959852
8.53,-0.11603267418350922,0.02159938686845552,64.7842506740147
8.54,-0.0060535253688175335,-0.042443710424772234,64.50360354605031
8.55,-0.06370421327722076,0.04592157780189643,64.08909512349766
8.56,-0.01677923474712511,-0.0673607997253528,63.71889940536043
8.57,-0.0280737317439793,0.04237506830548689,63.438252277396046
8.58,0.00105631986301514,-0.1011784838265999,63.29238962536193
8.59,0.027829965621745036,0.035831186266950574,63.17976150163938
8.6,0.10213800521615624,-0.012790314893502791,62.95542843553628
8.61,0.03672742908329564,0.163963142266263,62.5963108935029
8.62,0.10091917460498492,0.08388066976669273,62.26027288501924
8.63,0.10806964752385663,0.13371484836785388,62.03593981891613
8.64,0.11046668105916023,0.0447317810676171,61.833763105020736
8.65,0.20496668111197622,0.24166602129727457,61.653742743333055
8.66,0.16336392958399532,0.004987994001401805,61.39617514891838
8.67,0.24656943263995712,0.20073243749677996,61.171842082815274
8.68,0.3524045573766663,0.15506254746559647,61.19399843502298
8.69,0.38864445421549343,0.34250129452744776,61.90115534298587
8.7,0.439185296892064,0.21972342383239232,63.86476205739455
8.71,0.41956212405220583,0.30987340716048,67.29807346824828
8.72,0.4243155634357739,0.15803703930129478,71.85305020961755
8.73,0.22398043864624873,0.09278126456735926,76.43110648453653
8.74,0.1586104902004272,-0.13675798232283753,80.30200585149261
8.75,-0.031608340516376114,-0.022880706428448645,83.26449477793241
8.76,-0.01141638005797132,-0.10769948515870777,85.38504232047907
8.77,-0.08690262257651479,-0.05669839052969574,86.787354778959
8.78,-0.0310395528978295,-0.18954377205326858,87.55082574878315
8.79,-0.08690262257651479,-0.03178130122911517,87.57298210099087
8.8,0.04209028377244943,-0.11362558812367597,87.02276602116596
8.81,-0.007841143598535463,0.04118527157120756,86.14759010896124
8.82,-0.1641764833247762,-0.31351143948260335,85.003768426238
8.83,-0.09226547726566858,-0.04898759246330855,83.70208273403478
8.84,-0.04708748927825182,-0.14032737252567554,82.23237803758973
8.85,-0.048265692202384095,-0.01871641785847099,80.53741709369957
8.86,-0.06492304388839207,-0.2536097500529248,78.84337933115143
8.87,-0.0785739467335108,-0.004484618459975934,77.32843874894895
8.88,-0.030430137592243844,-0.17236036152550363,76.0609107663993
8.89,-0.07146410150167813,-0.01871641785847099,74.98355814029918
8.9,-0.09462188311393312,-0.20437046981890328,73.97359775216421
8.91,-0.057772570969520355,-0.02702211429199785,72.7956183597874
8.92,-0.05301913158595222,-0.20853475838888094,71.34807001555006
8.93,-0.005484737750270919,0.05601196933684228,69.8562089668973
8.94,-0.06073839212337055,-0.1954927557246652,68.55452327469408
8.95,-0.05480674981567015,0.0328795751376807,67.7467396004545
8.96,-0.04708748927825182,-0.13261657445928834,67.30915164435214
8.97,0.026651762697612765,-0.06498120625679416,66.97219045452648
8.98,0.09141229583784866,-0.1735272775533545,66.62415108859697
8.99,0.11936414452071083,0.02397898033701418,66.33242578452874
9.0,0.15917927781897379,-0.12371597965862181,66.19856448994045
9.01,0.14849419612770526,-0.040086997662642024,66.31026943232102
9.02,0.17644604481056744,-0.09879889035804125,66.64723062214668
9.03,0.06882330184414027,0.05839156280540094,66.96111227842263
9.04,-0.05541616512125581,-0.14922796732634205,67.18544534452573
9.05,-0.05362854689153788,-0.02466540152986764,67.38762205842113
9.06,-0.15645722278735785,-0.23580856045159174,67.52240653435139
9.07,-0.15109436809820406,-0.07388180105746067,67.66826918638552
9.08,-0.11066981949435545,-0.22809776238520454,67.75781777655835
9.09,-0.19212833200763835,-0.048392694096168885,67.70150371469708
9.1,-0.041115219283512375,0.05068076473901375,67.52240653435139
9.11,-0.1552790198632256,0.32588990166039405,67.33130799655986
9.12,0.7393832764235589,-0.007459110295674258,67.07374040214518
9.13,1.491929923447768,-0.25301485168578514,66.7146228601118
9.14,0.05635060192315382,-0.7328690269032101,66.32134760842487
9.15,-0.13622463464191403,-0.370461517783012,65.87268147621866
9.16,0.024864144467894835,-0.21922004829096647,65.45724987232401
9.17,-0.006662940674403191,0.07557497333316587,65.15444639215193
9.18,0.01592605331930519,-0.06381429022894326,64.88580062163338
9.19,-0.0399370163593801,0.05955847883325182,64.73993796959927
9.2,-0.05066272573768768,-0.1604852748891388,64.54883943180774
9.21,-0.04708748927825182,0.0038210779735509235,64.11125147570537
9.22,0.0004875322444685262,-0.021690909694169314,63.66258534349916
9.23,-0.0042659071390996044,0.07438517659888655,63.35978186332706
9.24,-0.014382201211821523,-0.040086997662642024,63.17976150163938
9.25,0.031973989699727506,0.09635065477019725,63.101291087570395
9.26,0.06289165953643988,0.010342079305658787,62.977584787743986
9.27,0.023076526238176905,0.09218636620021958,62.66370313146803
9.28,0.10985726575357456,-0.018144400197759775,62.237193351469536
9.29,0.05992583838258968,0.11353406529796217,61.68790045298662
9.3,0.20378847818784393,0.0767647700674452,61.28354702519583
9.31,0.1532476355112734,0.18769043483256423,61.22723296333456
9.32,0.27809651778225514,0.17819494166475805,61.31770473484939
9.33,0.23706255387282085,0.2564927190629093,61.46356738688351
9.34,0.3161240328508002,0.17405353380120883,62.09133069943542
9.35,0.39932953590676196,0.3086836104262007,63.987545175878964
9.36,0.42134974228192373,0.11591365876652084,67.58979877231653
9.37,0.3577267843787811,0.24226091966441424,72.51497123182301
9.38,0.2858157783196735,0.031094880036261707,77.30628239674124
9.39,0.05456298369343589,0.03049998166912204,81.12086770183606
9.4,0.012350816859869329,-0.13616308395569787,83.91533762403402
9.41,-0.14040928640693554,-0.054318797061137084,85.84478662878915
9.42,-0.11306685302965903,-0.20734496165460162,87.04584555471565
9.43,-0.08214918319294666,0.005582892368541469,87.66253069116371
9.44,-0.10652579541637297,-0.16938586968980532,87.79731516709397
9.45,-0.05123151335623429,0.028715286567703047,87.32556950133805
9.46,-0.0340053740516797,-0.16938586968980532,86.46239494657918
9.47,-0.1142450559537913,0.002631281239271594,85.27241419675653
9.48,-0.10234114365135145,-0.18599726255685903,83.92641580013787
9.49,-0.20399161662303916,-0.11541028322509496,82.51210198421212
9.5,-0.10177235603280484,-0.23464164442374086,80.96392687369809
9.51,-0.14577214109608932,-0.0009381089635663944,79.35943770132276
9.52,-0.10234114365135145,-0.13380637119356767,77.9682034189467
9.53,-0.07678632850379287,0.037020983001229905,76.82345855488147
9.54,-0.15942304394120807,-0.19608765409180487,75.80241999064263
9.55,-0.0970189166492367,0.0020363828721319294,74.73706872198836
9.56,-0.11542325887792357,-0.18242787235402105,73.51385344385413
9.57,-0.08572441965238252,0.028120388200563385,72.16785504723549
9.58,-0.1083134136460909,-0.14803817059206273,70.74246305520587
9.59,-0.24027214114890533,-0.1848074658225797,69.38446330114138
9.6,-0.15170378340378973,-0.1652444618262561,68.33019020859098
9.61,-0.144553310484918,0.04532667943475677,67.83628819062734
9.62,-0.02925193466811157,-0.1071045867915681,67.53348471045524
9.63,-0.035183576975811974,-0.005079516827115599,67.02850451638776
9.64,0.09023409291371638,-0.1071045867915681,66.50136797011255
9.65,0.06646689599587574,-0.03830230256122303,66.18656313249461
9.66,0.053384780769303614,-0.11303068975653631,66.23179901825203
9.67,0.10392562344587417,0.04532667943475677,66.62415108859697
9.68,0.008816208087472514,-0.16700627622124664,67.03958269249162
9.69,-0.13923108348280328,-0.060839798393244944,67.26391575859472
9.7,-0.12078611356707736,-0.09227788902593338,67.29807346824828
9.71,-0.10116294072721918,0.06610236087178813,67.29807346824828
9.72,-0.16714230447862638,-0.14208918692066608,67.4208565867327
9.73,-0.2574982804534599,-0.08456709095954619,67.70150371469708
9.74,-0.2301558470761834,-0.2304773558537632,67.85844454283506
9.75,-0.28248430798247187,0.0038210779735509235,67.72458324824679
9.76,-0.2301558470761834,0.0038210779735509235,67.36546570621341
9.77,0.10689144459972437,0.38817118455863125,66.97219045452648
9.78,1.1037730014767433,-0.13142677772500902,66.70354468400795
9.79,1.082362210407167,-0.3147012362168827,66.5909165602854
9.8,-0.18794368024261685,-0.6504298416415096,66.39981802249386
9.81,-0.25274484106989176,-0.11838477506079328,65.91791736197608
9.82,-0.0970189166492367,-0.13261657445928834,65.34554492994346
9.83,-0.06370421327722076,0.09575575640305757,64.91903514994496
9.84,-0.08869024080623272,-0.08278239585812719,64.67254573163413
9.85,-0.1855872743943523,-0.006864211928534593,64.53776125570387
9.86,-0.13683404994749968,-0.12252618292434249,64.35774089401619
9.87,-0.19034071377792042,0.10108696100088611,64.01062470942867
9.88,-0.10059415310867256,0.02159938686845552,63.640428991291444
9.89,-0.1499161651740718,0.04296996667262656,63.3256241536735
9.9,-0.09047785903595065,-0.04898759246330855,63.09021291146654
9.91,-0.12257373179679529,0.09870736753232745,62.9221939072247
9.92,-0.038758813435247834,-0.06262449349466394,62.72001719332931
9.93,0.04802192608014983,0.24818702262938244,62.42829188926107
9.94,-0.01320399828768925,0.06193807230181048,62.0691743472277
9.95,-0.05956018919923828,0.09870736753232745,61.74421451484789
9.96,0.030795786775595236,0.07498007496602621,61.41833150112609
9.97,0.09498753229728452,0.24997171773080143,61.13768437316171
9.98,0.11997355982629648,0.13371484836785388,60.913351307058605
9.99,0.21211715403084794,0.3211535954297052,60.980743545023735
