time_s,ECG1,ECG2,NIBP
0.0,0.08904500030288519,-0.03237863421715361,98.8829279004145
0.01,0.11996841021463839,-0.01932033994075802,96.31381917089014
0.02,0.09857838315132725,-0.02941084006342734,93.92307155316266
0.03,0.1217308843546865,-0.018133222279267513,91.83707338473047
0.04,0.09084753067338894,-0.03356575187864412,90.02983827844437
0.05,0.11936756675780381,-0.01338475163330548,88.45884305533293
0.06,0.09797753969449266,-0.02644304590970107,86.97761898782787
0.07,0.11700424916092111,-0.010416957479579209,85.53064970338312
0.08,0.08311667819545064,-0.030597957724917847,84.03879484113519
0.09,0.10390586180192721,-0.013978310464050734,82.51268519582692
0.1,0.07955167368489878,-0.030597957724917847,80.96413276161707
0.11,0.11343924465036925,-0.011010516310324464,79.55023706081677
0.12,0.08191499128178148,-0.027630163571191576,78.46235239879749
0.13,0.10390586180192721,-0.008636280987343446,77.75481394868942
0.14,0.07242166466379506,-0.0311915165556631,77.41817211516553
0.15,0.0967758527808235,-0.018726781110012768,77.40754132042267
0.16,0.06645328632590487,-0.03534642837087988,77.6319692094386
0.17,0.08784331338921603,-0.01635254578703175,77.87883988735611
0.18,0.05932327730480116,-0.03237863421715361,78.09145578221329
0.19,0.08191499128178148,-0.017539663448522258,78.35013845428954
0.2,0.053995798654201184,-0.02941084006342734,78.75410865451819
0.21,0.11043502736619634,0.010921482485712675,79.33762116595959
0.22,0.11103587082303093,-0.005074928002871923,79.95420726104543
0.23,0.12589673232207294,0.006766570670495896,80.44794861688045
0.24,0.14848844629905325,0.012702158977948437,80.72789287844242
0.25,0.1990394091340695,0.03407027688477758,80.76214766150274
0.26,0.11700424916092111,0.010327923654967422,80.6274909280932
0.27,0.13422842825684583,0.04178654168446589,80.414875033236
0.28,0.07061913429329132,0.010327923654967422,80.1455615664169
0.29,0.06469081218585676,-0.016946104617777003,79.79710773873428
0.3,0.01654322317817885,-0.03712710486311564,79.33762116595959
0.31,0.04862826377314558,-0.02822372240193683,78.7316658656166
0.32,0.017104010404557793,-0.04006522107530465,78.0465702044101
0.33,0.04326072889208997,-0.02822372240193683,77.35084374846075
0.34,0.021269858371944235,-0.04422013289052143,76.67756008141299
0.35,0.055157429337414715,-0.028817281232682086,76.06097398632714
0.36,0.02783908016666901,-0.04540725055201194,75.46564948072702
0.37,0.05099158137002827,-0.00032645735690988977,74.88213696928563
0.38,-0.007851021169305217,0.023386217931363012,74.33287924090456
0.39,0.4148223225985961,0.17877991982047053,73.79425230726635
0.4,1.2351338660996243,0.2262349483385536,73.27806816252973
0.41,1.2594880542166527,-0.17055913001464876,72.80676959559631
0.42,0.4231139623029133,-0.5187407401298149,72.38035660646605
0.43,-0.18141466773358841,-0.2874308637883893,71.98819840039613
0.44,-0.20400638171056873,-0.15337560186457366,71.62911377797066
0.45,0.04742657685947641,-0.03356575187864412,71.32554552809123
0.46,0.08311667819545064,-0.05015572119797397,71.05623206127213
0.47,0.13126426720312856,-0.02050745760224853,70.78691859445303
0.48,0.10747086631247907,-0.03415931070938937,70.52941712179265
0.49,0.1609859902012126,-0.0062620456643624305,70.28254644387513
0.5,0.13362758480001125,-0.027036604740446325,70.05811855485922
0.51,0.17228184718970274,0.00026710147383536434,69.82187867168456
0.52,0.1532551377232743,-0.018133222279267513,69.59745078266864
0.53,0.20496773124150405,0.009734364824222167,69.39546568255432
0.54,0.18237601726452374,-0.013978310464050734,69.1485950046368
0.55,0.2424203067175264,0.018637747285400977,68.8792815378177
0.56,0.23765361529330536,0.009140805993476914,68.59933727625574
0.57,0.30719123136429444,0.0364445122077586,68.30758102053504
0.58,0.3167246142127365,0.018044188454655725,68.07252233677626
0.59,0.4237148057597479,0.05600227568081472,67.88116803140478
0.6,0.4700999206273777,0.04297365934595639,67.71343771435079
0.61,0.5949151347271484,0.0821188642336059,67.5894117756841
0.62,0.6311660232895016,0.06549921697273879,67.61185456458568
0.63,0.7250978837079747,0.09099256875324745,68.33002380943663
0.64,0.7060711742415462,0.04650533438889066,71.23577437248485
0.65,0.6906094692856697,0.06431209931124827,77.3402129537179
0.66,0.5152432923508827,0.03288315922328708,85.07116313060841
0.67,0.3880647606542293,0.031102482731051314,92.42058589617187
0.68,0.21626358822999422,-0.015758986956286497,98.54628606689062
0.69,0.1627484643412607,-0.010416957479579209,103.13524579755826
0.7,0.08191499128178148,-0.03356575187864412,106.16502229927318
0.71,0.09913917037770618,-0.015758986956286497,107.993518995045
0.72,0.04446241580575914,-0.04481369172126668,108.84634497330549
0.73,0.07955167368489878,-0.02228813409448429,108.82390218440389
0.74,0.03793325024149,-0.04778148587499295,107.993518995045
0.75,0.08371752165228523,-0.021694575263739038,106.48985213863833
0.76,0.055157429337414715,-0.04065877990604991,104.54914149835855
0.77,0.09321084827027164,-0.0234752517559748,102.28241981929776
0.78,0.05812159039113199,-0.04540725055201194,99.79127025122104
0.79,0.10626917939880991,-0.012791192802560225,97.1772759438935
0.8,0.06825581669640862,-0.03237863421715361,94.60816721436916
0.81,0.12113004089785193,-0.006855604495107684,92.18434601299721
0.82,0.0712199777501259,-0.02822372240193683,89.9625099117396
0.83,0.10747086631247907,-0.0009200161876551439,87.98754448839951
0.84,0.06765497323957403,-0.02050745760224853,86.27126173713565
0.85,0.10687002285564448,-0.007449163325852938,84.76759488072898
0.86,0.055758272794249296,-0.025849487078955815,83.32062559628423
0.87,0.09261000481343705,0.0008606603045806184,81.83940152877916
0.88,0.054556585880580134,-0.018726781110012768,80.32510387762963
0.89,0.08728252616283708,0.00026710147383536434,78.79899423232138
0.9,0.039695724381538115,-0.03237863421715361,77.49731247602904
0.91,0.07895083022806419,-0.004481369172126669,76.52046055910185
0.92,0.038534093698324584,-0.03237863421715361,75.89206246985727
0.93,0.07061913429329132,-0.008636280987343446,75.58967541939371
0.94,0.02427407565611715,-0.038907781355351403,75.5554206363334
0.95,0.07001829083645673,-0.004481369172126669,75.71252015864454
0.96,0.02187070182877882,-0.03356575187864412,75.9263172529176
0.97,0.06288828181535301,-0.005074928002871923,76.18381872557796
0.98,0.04386157234892456,-0.01635254578703175,76.57715813106377
0.99,0.11520171879041737,0.019824864946891486,77.11578506470197
1.0,0.06529165564269135,-0.008042722156598193,77.76662594284814
1.01,0.1431609676484533,0.03822518869999436,78.37258124319112
1.02,0.14848844629905325,0.03169604156179657,78.85451060486741
1.03,0.13302674134317666,0.04000586519223012,79.10138128278493
1.04,0.06765497323957403,0.028134688577325043,79.11319327694366
1.05,0.07418413880384317,0.04297365934595639,78.97853654353412
1.06,0.0010815182223022494,-0.02525592824821056,78.75410865451819
1.07,0.017104010404557793,-0.015165428125541242,78.46235239879749
1.08,-0.03516937034005092,-0.038907781355351403,78.13634136001647
1.09,0.011776531753957825,-0.018133222279267513,77.69929757614337
1.1,-0.02567604372206451,-0.04956216236722871,77.16067064250515
1.11,0.026637393252999842,-0.01932033994075802,76.55471534216217
1.12,-0.022711882668347234,-0.04243945639828567,75.89206246985727
1.13,0.022471545285613403,-0.01338475163330548,75.23059079696824
1.14,-0.030442735146285534,-0.021694575263739038,74.60219270772366
1.15,-0.025075200265229927,0.04709889321963591,74.00804940153941
1.16,0.2911687391820389,0.13963471493282104,73.46942246790121
1.17,1.1822195856677253,0.2588510060880053,72.98631190680904
1.18,1.252358045195549,-0.1563433960182999,72.5374561287772
1.19,0.4130197922280923,-0.471879270442477,72.06615756184377
1.2,-0.30743156874702826,-0.30045948012324764,71.56178541126589
1.21,-0.25752150559930226,-0.11779174996139567,71.05623206127213
1.22,-0.08868449422878444,-0.04837504470573821,70.62981907214187
1.23,0.055157429337414715,-0.004481369172126669,70.293177238618
1.24,0.03196487190359981,-0.022881692925229544,70.05811855485922
1.25,0.08964584375971978,0.013889276639438945,69.84432146058616
1.26,0.0533949551973666,-0.022881692925229544,69.60926277682738
1.27,0.11103587082303093,0.021011982608381996,69.31750652110668
1.28,0.07061913429329132,0.0020477779660711265,69.01393827122725
1.29,0.13959596313790143,0.03466383571552284,68.75643679856688
1.3,0.09321084827027164,0.003798776516769626,68.50956612064937
1.31,0.16455099471176446,0.04059942402297538,68.27450743689059
1.32,0.13126426720312856,0.015669953131674706,68.03826755371594
1.33,0.20260441364462137,0.05778295217305048,67.79139687579843
1.34,0.19010686974246205,0.025166894423598773,67.5669689867825
1.35,0.30482791376741175,0.07558971709540811,67.33191030302372
1.36,0.31552292729906734,0.05837651100379574,67.0850396251062
1.37,0.46056653777893564,0.09989595121442627,66.84879974193156
1.38,0.4944541087444061,0.06549921697273879,66.66925743071882
1.39,0.6151435311072461,0.10879933367560507,66.56885548036959
1.4,0.6193093790746325,0.0809317465721154,66.75902858632519
1.41,0.6924119996561734,0.10227018653740728,68.1280387093223
1.42,0.5889868126197139,0.07202836411093658,72.17837150635172
1.43,0.49801911325495796,0.08033818774137014,79.06830769914048
1.44,0.2882045781283216,0.03169604156179657,86.6752319373643
1.45,0.20020103981728304,0.04356721817670165,93.49665856403242
1.46,0.05872243384796657,-0.006855604495107684,98.91600148405895
1.47,0.05812159039113199,0.0144828354701842,102.7312755973296
1.48,-0.019146878157795377,-0.012791192802560225,105.12084201564122
1.49,0.012377375210792409,0.009734364824222167,106.35519540522877
1.5,-0.041738592134775696,-0.030597957724917847,106.6587636551082
1.51,-0.0030843297450841925,-0.00032645735690988977,106.16502229927318
1.52,-0.04290022281798922,-0.027036604740446325,104.96374249333007
1.53,0.01830569731822696,0.007360129501241151,103.26990253096781
1.54,-0.03697190071055467,-0.014571869294795987,101.23942073508167
1.55,0.0016823616791368323,-0.00032645735690988977,98.89355869515735
1.56,-0.03220520928633364,-0.014571869294795987,96.31381917089014
1.57,0.015341536264509684,0.018637747285400977,93.69864366414674
1.58,-0.0239135695820164,-0.0015135750184003978,91.15197772352398
1.59,0.021269858371944235,0.018044188454655725,88.80729688301555
1.6,-0.015581873647243517,0.002611658855279118,86.72011751516749
1.61,0.02960155430671712,0.023979776762108267,84.86917803049408
1.62,-0.02747857409256826,0.003798776516769626,83.16352607397309
1.63,0.017704853861392377,0.028134688577325043,81.52520248415688
1.64,-0.03400773965683739,0.00439233534751488,79.94357646630257
1.65,0.0028439923623503594,0.023979776762108267,78.4174668209943
1.66,-0.04646522732854108,0.00026710147383536434,76.98112833129242
1.67,-0.0030843297450841925,0.022199100269872502,75.69007736974294
1.68,-0.05003023183909294,-0.0009200161876551439,74.66952107442845
1.69,-0.012617712593526242,0.03763162986924911,73.94072103483464
1.7,-0.06965778476235598,-0.007449163325852938,73.4918652568028
1.71,-0.014380186733574352,0.03466383571552284,73.28988015668847
1.72,-0.03516937034005092,0.023386217931363012,73.35720852339324
1.73,0.02900071084988254,0.05303448152708845,73.6371527849552
1.74,-0.01794519124412621,0.023979776762108267,74.06356577408546
1.75,0.11520171879041737,0.0744025994339176,74.59156191298081
1.76,0.0533949551973666,0.05600227568081472,75.16326243026347
1.77,0.055758272794249296,0.08861833343026644,75.74677494170486
1.78,-0.03877443108105842,0.04178654168446589,76.30784466424466
1.79,-0.014380186733574352,0.03407027688477758,76.7791432311781
1.8,-0.10058119467410918,-0.002700692679890906,77.12641585944483
1.81,-0.05836192777386582,0.015076394300929453,77.30595817065758
1.82,-0.0982178770772265,-0.0062620456643624305,77.30595817065758
1.83,-0.04826775769904483,0.023979776762108267,77.14885864834642
1.84,-0.10711036023837832,-0.01635254578703175,76.90198797042892
1.85,-0.039936061764271946,0.021011982608381996,76.56534613690503
1.86,-0.09104781182566714,-0.01635254578703175,76.15074514193351
1.87,-0.03757274416738925,0.03407027688477758,75.67944657500009
1.88,-0.1356303963227932,0.026354012085089282,75.14081964136187
1.89,0.11816587984413464,0.13429268545611373,74.57974991882207
1.9,0.8766706597521121,0.20845786135773323,73.99623740738068
1.91,1.437818392205157,-0.0056684868336171765,73.35720852339324
1.92,0.3642713597635798,-0.3977437724823948,72.69455565108834
1.93,-0.25928397973935036,-0.29217933443435135,72.0779695560025
1.94,-0.426919304196199,-0.14328510174190434,71.56178541126589
1.95,-0.17608718908298843,-0.0038878103413814142,71.16844600578008
1.96,-0.05836192777386582,0.00026710147383536434,70.84361616641493
1.97,0.03436824573093814,0.031102482731051314,70.54004791653551
1.98,0.007610683786571384,0.013889276639438945,70.22584887191321
1.99,0.05872243384796657,0.04119298285372063,69.88920703838934
2.0,0.03316655881726898,0.025166894423598773,69.51949162122101
2.01,0.06941744737962215,0.05066024620410744,69.1485950046368
2.02,0.05219326828369744,0.028728247408070298,68.7906915816272
2.03,0.10330501834509263,0.05600227568081472,68.46468054284618
2.04,0.08728252616283708,0.04059942402297538,68.17292428712548
2.05,0.135430115170515,0.06727989346497455,67.88116803140478
2.06,0.12830010614941129,0.04356721817670165,67.5894117756841
2.07,0.2114968968057732,0.07677683475689862,67.32009830886498
2.08,0.22575691484798063,0.06549921697273879,67.05078484204589
2.09,0.32265293632017106,0.09633459822995474,66.7932833693855
2.1,0.3797330647194564,0.09217968641473796,66.53460069730927
2.11,0.5015841177655098,0.13251200896387796,66.24284444158857
2.12,0.5354716887309803,0.10879933367560507,66.0077857578298
2.13,0.6478294151590474,0.13429268545611373,65.95108818586787
2.14,0.6388968757674398,0.10286374536815253,66.53460069730927
2.15,0.6430627237348263,0.11414136315231237,68.90172432671929
2.16,0.4896874173201851,0.08152530540286065,74.12026334604738
2.17,0.35894388111297987,0.07796395241838912,81.26651981208063
2.18,0.17524600824342002,0.03525739454626809,88.4033266827869
2.19,0.10154254420504452,0.04000586519223012,94.58572442546756
2.2,0.009413214157075132,0.003798776516769626,99.24201252283997
2.21,0.02900071084988254,0.02754112974657979,102.33911739125968
2.22,-0.01974772161462996,0.006173011839750642,104.12272850922831
2.23,0.008211527243405967,0.029915365069560804,104.8739713377237
2.24,-0.030442735146285534,0.002611658855279118,104.76175739321575
2.25,0.009413214157075132,0.016857070793165216,103.8534150424092
2.26,-0.016743504330457043,0.0014542191353258726,102.37219097490413
2.27,0.01654322317817885,0.018044188454655725,100.59921065167835
2.28,-0.010815182223022492,-0.004481369172126669,98.55809806104935
2.29,0.026637393252999842,0.023386217931363012,96.26893359308697
2.3,-0.0036851732019187755,-0.0038878103413814142,93.83330039755629
2.31,0.038534093698324584,0.023979776762108267,91.36577481779705
2.32,0.009413214157075132,0.007360129501241151,88.99746998897115
2.33,0.04922910722998016,0.031102482731051314,86.80988867077386
2.34,0.009974001383454077,0.009734364824222167,84.8467352415925
2.35,0.03140408467722087,0.022792659100617757,83.02886934056353
2.36,0.00048067476546766636,0.006766570670495896,81.3338481787854
2.37,0.02070907114556529,0.029321806238815553,79.74159136618825
2.38,-0.014981030190408934,-0.0015135750184003978,78.18122693781966
2.39,0.02187070182877882,0.023386217931363012,76.6326745036098
2.4,-0.011416025679857077,0.009734364824222167,75.23059079696824
2.41,0.01830569731822696,0.028728247408070298,74.06356577408546
2.42,-0.01377934327673977,0.008547247162731659,73.2001090010821
2.43,0.04862826377314558,0.04709889321963591,72.33547102866287
2.44,0.02187070182877882,0.022792659100617757,71.7070729394183
2.45,0.07182082120696048,0.05066024620410744,71.60667098906907
2.46,0.11936756675780381,0.04828601088112642,72.0779695560025
2.47,0.13659174585372852,0.07915107007987963,72.8516551733995
2.48,0.061125807675304906,0.05422159918857896,73.51430804570438
2.49,0.06052496421847032,0.0732154817724271,74.00804940153941
2.5,-0.016743504330457043,-0.0038878103413814142,74.50179075737444
2.51,-0.006048490798801469,0.007360129501241151,75.0734912746571
2.52,-0.039335218307437365,-0.011010516310324464,75.60030621413658
2.53,-0.009613495309353327,0.01923130611614623,75.95939083656205
2.54,-0.03516937034005092,-0.02050745760224853,76.16137593667638
2.55,-0.01021433876618791,-0.0009200161876551439,76.26295908644148
2.56,-0.03220520928633364,-0.01635254578703175,76.26295908644148
2.57,0.007009840329736801,0.007360129501241151,76.08341677522874
2.58,-0.030442735146285534,0.00026710147383536434,75.73496294754612
2.59,-0.030442735146285534,0.05303448152708845,75.28610716951428
2.6,0.2513127898786782,0.1289803339209437,74.80417780783799
2.61,1.1013861126082463,0.21673800704662952,74.28799366310137
2.62,1.348653223210905,-0.10295277919276433,73.72692394056158
2.63,0.3262179408307229,-0.42145644777066765,73.14341142912018
2.64,-0.33895582211561603,-0.28386951080391776,72.57171091183753
2.65,-0.3329874437777259,-0.10354633802350957,72.06615756184377
2.66,-0.1332670787259105,-0.03475286954013462,71.60667098906907
2.67,0.02900071084988254,0.010921482485712675,71.13537242213563
2.68,0.03793325024149,-0.0056684868336171765,70.65226186104347
2.69,0.08608083924916791,0.02754112974657979,70.21521807717036
2.7,0.06228743835851843,-0.002107133849145652,69.86676424948774
2.71,0.11283840119353468,0.028728247408070298,69.58681998792578
2.72,0.0967758527808235,0.0144828354701842,69.28325173804636
2.73,0.12529588886523838,0.03169604156179657,68.93597910977961
2.74,0.11283840119353468,0.015076394300929453,68.57689448735414
2.75,0.1627484643412607,0.03585095337701335,68.2296218590874
2.76,0.150290976669557,0.023386217931363012,67.8587252425032
2.77,0.1913085566561312,0.04119298285372063,67.48900982533486
2.78,0.20733104883838677,0.029321806238815553,67.14055599765226
2.79,0.29649621783263885,0.05956362866528625,66.80391416412837
2.8,0.3363521671359995,0.05837651100379574,66.5239699025664
2.81,0.45107321116094923,0.0821188642336059,66.23221364684571
2.82,0.5116782878403309,0.08033818774137014,65.95108818586787
2.83,0.6115785265966942,0.09514748056846423,65.74910308575355
2.84,0.6424618802779917,0.08271242306435116,65.8613170302615
2.85,0.6983403217636079,0.08568021721807742,67.15236799181099
2.86,0.6228743835851843,0.05778295217305048,70.96646090566576
2.87,0.508113283329779,0.06312498164975777,77.47486968712745
2.88,0.31732545766957104,0.023386217931363012,84.87980882523695
2.89,0.21269858371944236,0.023979776762108267,91.72485944022252
2.9,0.09084753067338894,-0.015165428125541242,97.16664514915064
2.91,0.0712199777501259,0.002611658855279118,100.98073806300542
2.92,0.017704853861392377,-0.024068810586720054,103.35967368657417
2.93,0.038534093698324584,-0.006855604495107684,104.66135544286651
2.94,0.015341536264509684,-0.02941084006342734,105.06532564309516
2.95,0.024834862882496096,-0.01338475163330548,104.63891265396492
2.96,0.01057484484028866,-0.0311915165556631,103.53921599778691
2.97,0.040296567838372696,-0.0032942515106361603,102.05799193028183
2.98,0.026637393252999842,-0.0234752517559748,100.2968236012148
2.99,0.05932327730480116,-0.004481369172126669,98.19901343862388
3.0,0.04446241580575914,-0.025849487078955815,95.87559418760117
3.01,0.07298245189017401,-0.004481369172126669,93.41869940258478
3.02,0.05279411174053202,-0.02466236941746531,91.02913298427316
3.03,0.07955167368489878,-0.0038878103413814142,88.84037046666
3.04,0.06529165564269135,-0.021101016432993783,86.85477424857704
3.05,0.07895083022806419,-0.005074928002871923,85.08179392535128
3.06,0.05219326828369744,-0.018726781110012768,83.52261069639856
3.07,0.07714829985756044,-0.0009200161876551439,82.06382941779508
3.08,0.06228743835851843,-0.017539663448522258,80.61686013335033
3.09,0.07478498226067776,-0.0038878103413814142,79.07893849388334
3.1,0.04626494617626289,-0.02228813409448429,77.54219805383222
3.11,0.06645328632590487,-0.0062620456643624305,76.12830235303193
3.12,0.04386157234892456,-0.0234752517559748,74.94946533599041
3.13,0.0735832953470086,0.007360129501241151,73.73873593472031
3.14,0.05992412076163574,0.006173011839750642,72.8516551733995
3.15,0.09617500932398891,0.021605541439127247,72.58234170658038
3.16,0.10330501834509263,0.012108600147203183,72.88590995645981
3.17,0.19843856567723492,0.04709889321963591,73.53675083460598
3.18,0.13599090239689393,0.031102482731051314,74.09782055714578
3.19,0.11936756675780381,0.05540871685006947,74.45690517957125
3.2,0.0634891252721876,0.026947570915834534,74.7817350189364
3.21,0.04742657685947641,-0.00032645735690988977,75.23059079696824
3.22,0.0016823616791368323,-0.02822372240193683,75.85898888621281
3.23,0.02070907114556529,-0.02050745760224853,76.49801777020025
3.24,0.0010815182223022494,-0.02941084006342734,76.91379996458764
3.25,0.02070907114556529,-0.02050745760224853,77.0484566979972
3.26,0.006408996872902218,-0.03475286954013462,76.94687354823209
3.27,0.03436824573093814,-0.02466236941746531,76.74488844811776
3.28,0.015341536264509684,-0.04481369172126668,76.52046055910185
3.29,0.03496908918777273,-0.0038878103413814142,76.2180735086383
3.3,-0.012617712593526242,0.021011982608381996,75.79166051950804
3.31,0.37320389915518726,0.14319606791729256,75.25303358586983
3.32,1.1964796037099328,0.20430294954251646,74.62463549662526
3.33,1.3355948920823666,-0.11897886762288618,74.03049219044101
3.34,0.3399171716465514,-0.4778148587499295,73.48005326264406
3.35,-0.2824765371731653,-0.2785274813272105,72.91898354010426
3.36,-0.2640506711635714,-0.13141392512699926,72.33547102866287
3.37,-0.0018826428314150266,-0.028817281232682086,71.76377051138022
3.38,0.07714829985756044,-0.0311915165556631,71.24758636664359
3.39,0.10687002285564448,-0.013978310464050734,70.79873058861175
3.4,0.09913917037770618,-0.017539663448522258,70.41720317728469
3.41,0.13186511065996315,-0.0038878103413814142,70.0805613437608
3.42,0.12233172781152109,-0.011010516310324464,69.72147672133534
3.43,0.15742098569066074,0.009140805993476914,69.33994931000827
3.44,0.14908928975588784,-0.008042722156598193,68.94660990452248
3.45,0.18774355214557936,0.013295717808693692,68.57689448735414
3.46,0.17700848238346814,0.002611658855279118,68.2296218590874
3.47,0.21506190131632505,0.023386217931363012,67.89298002556352
3.48,0.22755944521848437,0.012108600147203183,67.54452619788091
3.49,0.29473374369259076,0.0364445122077586,67.17481078071258
3.5,0.3262179408307229,0.028728247408070298,66.8157261582871
3.51,0.42075064470603063,0.05362804035783371,66.48971511950609
3.52,0.47899240378852953,0.05006668737336218,66.20977085794412
3.53,0.5848209646523274,0.06846701112646505,65.9853429689282
3.54,0.6472285717022127,0.06431209931124827,65.96290018002661
3.55,0.7233354095679266,0.07262192294168184,66.74839779158233
3.56,0.7215328791974228,0.05066024620410744,69.79943588278297
3.57,0.6858828340919042,0.05718939334230523,75.79166051950804
3.58,0.522413357602442,0.03050892390030606,83.23085444067786
3.59,0.37200221224151814,0.025760453254344028,90.3334065283238
3.6,0.21566274477315964,-0.008636280987343446,96.18979323222345
3.61,0.15501761186332239,-0.004481369172126669,100.50943949607199
3.62,0.08728252616283708,-0.02941084006342734,103.34904289183132
3.63,0.08131414782494689,-0.018133222279267513,105.11021122089835
3.64,0.055758272794249296,-0.03415931070938937,105.94059441025726
3.65,0.07418413880384317,-0.02644304590970107,105.96303719915885
3.66,0.05635911625108388,-0.04065877990604991,105.19998237650472
3.67,0.07418413880384317,-0.025849487078955815,103.80852946460601
3.68,0.05812159039113199,-0.03831422252460615,102.13713229114535
3.69,0.08311667819545064,-0.027036604740446325,100.20705244560843
3.7,0.0807133043681123,-0.03415931070938937,97.99702833850955
3.71,0.10626917939880991,-0.02050745760224853,95.56139514297888
3.72,0.09381169172710621,-0.03415931070938937,93.12694314686408
3.73,0.11640340570408654,-0.02228813409448429,90.88266425670487
3.74,0.10510754871559637,-0.03356575187864412,88.90769883336478
3.75,0.12649757577890752,-0.01635254578703175,87.19141608210093
3.76,0.11043502736619634,-0.030597957724917847,85.65467564204981
3.77,0.1294617368326248,-0.011010516310324464,84.27385352489397
3.78,0.1045067052587618,-0.03178507538640836,83.00642655166195
3.79,0.1140000318767482,-0.01932033994075802,81.73781837901406
3.8,0.10034085729137535,-0.028817281232682086,80.38062025017568
3.81,0.11640340570408654,-0.019913898771503274,78.94428176047379
3.82,0.09557416586715432,-0.030597957724917847,77.53038605967349
3.83,0.10747086631247907,-0.021101016432993783,76.38580382569229
3.84,0.09140831789976789,-0.03475286954013462,75.61211820829531
3.85,0.11103587082303093,-0.021101016432993783,75.20814800806666
3.86,0.10510754871559637,-0.018133222279267513,75.12900764720314
3.87,0.1431609676484533,-0.0009200161876551439,75.25303358586983
3.88,0.13186511065996315,-0.0056684868336171765,75.44320669182544
3.89,0.2239944407079325,0.016857070793165216,75.67944657500009
3.9,0.22042943619738067,0.018044188454655725,76.02671920326682
3.91,0.170479316819199,0.03407027688477758,76.4873869754574
3.92,0.135430115170515,0.021011982608381996,77.00357112019401
3.93,0.1140000318767482,0.006766570670495896,77.5079432707719
3.94,0.07001829083645673,-0.03712710486311564,77.97924183770533
3.95,0.06228743835851843,-0.04184589756754041,78.35013845428954
3.96,0.055758272794249296,-0.05015572119797397,78.52968076550228
3.97,0.07061913429329132,-0.04184589756754041,78.42809761573717
3.98,0.06469081218585676,-0.04837504470573821,78.13634136001647
3.99,0.08131414782494689,-0.03653354603237039,77.76662594284814
4.0,0.07478498226067776,-0.04600080938275719,77.39572932626393
4.01,0.08904500030288519,-0.028817281232682086,76.98112833129242
4.02,0.06168659490168385,-0.009823398648833956,76.4873869754574
4.03,0.0944125351839408,0.05718939334230523,75.903874464016
4.04,0.6882461516887869,0.1716572138515275,75.23059079696824
4.05,1.5133243866140362,0.16040927400890492,74.53486434101889
4.06,0.92481824875979,-0.34138536150313287,73.86158067397113
4.07,0.23112444972903623,-0.4351083008778085,73.2225517899837
4.08,-0.2301631001981009,-0.23878871760881573,72.6614820674439
4.09,-0.07146031513285973,-0.11007548516170737,72.19018350051046
4.1,0.10510754871559637,-0.04600080938275719,71.76377051138022
4.11,0.16571262539497797,-0.02466236941746531,71.35980031115156
4.12,0.1627484643412607,-0.03712710486311564,70.9558301109229
4.13,0.1859410217750756,-0.01932033994075802,70.54004791653551
4.14,0.18714270868874477,-0.027036604740446325,70.17033249936718
4.15,0.20316520087100032,-0.016946104617777003,69.84432146058616
4.16,0.2097344226657251,-0.021694575263739038,69.51949162122101
4.17,0.23529029769642268,-0.0056684868336171765,69.22773536550031
4.18,0.2323261366427054,-0.01932033994075802,68.93597910977961
4.19,0.2608461727271203,0.002611658855279118,68.62178006515732
4.2,0.272742873172445,-0.0009200161876551439,68.28513823163344
4.21,0.3089937617347982,0.0144828354701842,67.89298002556352
4.22,0.3393163281897168,0.007360129501241151,67.48900982533486
4.23,0.4165847967386442,0.03585095337701335,67.11811320875066
4.24,0.4748265558211431,0.03881874753073962,66.87124253083314
4.25,0.5711217338364989,0.05600227568081472,66.72595500268073
4.26,0.6466277282453782,0.05778295217305048,66.70351221377915
4.27,0.7197303488269191,0.06965412878795557,67.02834205314429
4.28,0.7637521460976662,0.06134430515752201,68.81195317111292
4.29,0.7714829985756045,0.0666863346342293,73.4918652568028
4.3,0.6620894332012548,0.04059942402297538,80.50464618884237
4.31,0.5164449792645519,0.03169604156179657,87.87533054389155
4.32,0.3482088113508686,0.003205217686024372,94.29396816974686
4.33,0.23765361529330536,-0.0038878103413814142,99.26445531174157
4.34,0.16691431230864714,-0.025849487078955815,102.76553038038992
4.35,0.13242589788634207,-0.021101016432993783,105.05351364893643
4.36,0.1140000318767482,-0.04006522107530465,106.26542424962241
4.37,0.1116367142798655,-0.03356575187864412,106.59143528840343
4.38,0.10570839217243096,-0.04125233873679516,106.12013672146999
4.39,0.1116367142798655,-0.03831422252460615,104.96374249333007
4.4,0.1116367142798655,-0.04540725055201194,103.35967368657417
4.41,0.12293257126835568,-0.03237863421715361,101.45203662993885
4.42,0.1294617368326248,-0.03534642837087988,99.29752889538602
4.43,0.14135843727794956,-0.02822372240193683,96.99773363268076
4.44,0.13482927171368042,-0.03712710486311564,94.6636835869152
4.45,0.15621929877699156,-0.018726781110012768,92.43121669091472
4.46,0.1520534508096051,-0.02941084006342734,90.37829210612699
4.47,0.15742098569066074,-0.021101016432993783,88.56042620509804
4.48,0.15445682463694346,-0.03178507538640836,87.02250456563105
4.49,0.15621929877699156,-0.021101016432993783,85.699561219853
4.5,0.14908928975588784,-0.030004398894172595,84.4758386250083
4.51,0.14672597215900515,-0.02466236941746531,83.20841165177627
4.52,0.14075759382111497,-0.0311915165556631,81.83940152877916
4.53,0.13422842825684583,-0.030597957724917847,80.39243224433442
4.54,0.13599090239689393,-0.03534642837087988,79.0009793324357
4.55,0.13126426720312856,-0.02644304590970107,77.79969952649259
4.56,0.12830010614941129,-0.03297219304789886,76.89135717568605
4.57,0.12233172781152109,-0.028817281232682086,76.28540187534307
4.58,0.11936756675780381,-0.03653354603237039,76.01608840852397
4.59,0.11816587984413464,-0.030597957724917847,76.06097398632714
4.6,0.11700424916092111,-0.03297219304789886,76.30784466424466
4.61,0.1140000318767482,-0.02525592824821056,76.58778892580662
4.62,0.14135843727794956,-0.015165428125541242,76.83465960372413
4.63,0.17288269064653733,-0.002700692679890906,77.12641585944483
4.64,0.15621929877699156,-0.007449163325852938,77.58708363163541
4.65,0.2186269058268769,0.0144828354701842,78.13634136001647
4.66,0.21566274477315964,0.018044188454655725,78.66433749891182
4.67,0.1526542942664397,0.010327923654967422,79.05649570498174
4.68,0.14075759382111497,0.019824864946891486,79.2702927992548
4.69,0.10687002285564448,0.005579453009005388,79.2702927992548
4.7,0.07242166466379506,-0.04243945639828567,79.11319327694366
4.71,0.05219326828369744,-0.04659436821350245,78.80962502706424
4.72,0.05635911625108388,-0.04837504470573821,78.38321203793399
4.73,0.055157429337414715,-0.04837504470573821,77.87883988735611
4.74,0.05279411174053202,-0.05905910365915278,77.38509853152108
4.75,0.06052496421847032,-0.05252995652095498,76.91379996458764
4.76,0.061125807675304906,-0.06380757430511481,76.37517303094944
4.77,0.06529165564269135,-0.04362657405977618,75.67944657500009
4.78,0.04742657685947641,-0.017539663448522258,74.92702254708881
4.79,0.06168659490168385,0.04059942402297538,74.24310808529819
4.8,0.6335693971168399,0.1740314491745085,73.6595955738568
4.81,1.4717059631706275,0.17462500800525374,73.15522342327891
4.82,0.9509749672473222,-0.33960468501089713,72.67211286218675
4.83,0.27630787768299686,-0.45410218346165665,72.19018350051046
4.84,-0.21530223869905887,-0.26072071640485284,71.7070729394183
4.85,-0.0922494987393363,-0.12254022060735771,71.30310273918964
4.86,0.08487915233549875,-0.05668486833617176,70.9333873220213
4.87,0.1377934327673977,-0.03653354603237039,70.55185991069425
4.88,0.1526542942664397,-0.03950134018609666,70.19277528826876
4.89,0.16515183816859902,-0.021694575263739038,69.92346182144966
4.9,0.16871684267915088,-0.02941084006342734,69.7096647271766
4.91,0.1758468517002546,-0.014571869294795987,69.50767962706227
4.92,0.1859410217750756,-0.025849487078955815,69.25017815440191
4.93,0.20556857469833864,-0.01338475163330548,68.94660990452248
4.94,0.2091335792088905,-0.017539663448522258,68.64422285405892
4.95,0.23112444972903623,-0.002700692679890906,68.35246659833822
4.96,0.25547863784606467,-0.005074928002871923,68.06071034261753
4.97,0.2852003608441487,0.012702158977948437,67.74651129799524
4.98,0.32561709737388833,0.015669953131674706,67.45475504227454
4.99,0.3797330647194564,0.026947570915834534,67.20788436435703
5.0,0.4516740546177838,0.03466383571552284,66.97282568059825
5.01,0.5414000108384148,0.0524409226963432,66.75902858632519
5.02,0.6294035491494534,0.06312498164975777,66.62437185291563
5.03,0.6906094692856697,0.06253142281901251,66.92794010279506
5.04,0.7405595886638513,0.04709889321963591,68.94660990452248
5.05,0.7482904411417896,0.0601571874960315,73.90646625177432
5.06,0.6597261156043721,0.04000586519223012,81.0645347119663
5.07,0.5021849612223445,0.02754112974657979,88.41395747752975
5.08,0.35061218517820697,-0.00032645735690988977,94.81015231448349
5.09,0.22635775830481522,-0.017539663448522258,99.81371304012264
5.1,0.15978430328754342,-0.04243945639828567,103.30415731402813
5.11,0.12233172781152109,-0.03712710486311564,105.514181421127
5.12,0.11103587082303093,-0.04362657405977618,106.69183723875265
5.13,0.09557416586715432,-0.04184589756754041,106.99540548863209
5.14,0.0967758527808235,-0.05252995652095498,106.47922134389546
5.15,0.09797753969449266,-0.04778148587499295,105.2448679543079
5.16,0.10626917939880991,-0.05371707418244549,103.57347078084723
5.17,0.11103587082303093,-0.04303301522903092,101.62094814640872
5.18,0.11936756675780381,-0.04896860353648346,99.45462841769717
5.19,0.11876672330096923,-0.04125233873679516,97.08750478828713
5.2,0.1270984192357421,-0.04243945639828567,94.67549558107393
5.21,0.13242589788634207,-0.037720663693860894,92.44302868507346
5.22,0.1377934327673977,-0.03475286954013462,90.43380847867303
5.23,0.1425601241916187,-0.024068810586720054,88.6950829385076
5.24,0.13899511968106684,-0.03237863421715361,87.1571612990406
5.25,0.13362758480001125,-0.027630163571191576,85.75507759239903
5.26,0.13006258028945938,-0.03297219304789886,84.39787946356066
5.27,0.12293257126835568,-0.028817281232682086,83.02886934056353
5.28,0.11876672330096923,-0.0311915165556631,81.65985921756642
5.29,0.11640340570408654,-0.02050745760224853,80.24596351676612
5.3,0.10867255322614823,-0.03475286954013462,78.87695339376901
5.31,0.10330501834509263,-0.03178507538640836,77.72174036504497
5.32,0.1045067052587618,-0.04303301522903092,76.87954518152732
5.33,0.09797753969449266,-0.037720663693860894,76.42005860875263
5.34,0.09261000481343705,-0.04243945639828567,76.29603267008592
5.35,0.08844415684605061,-0.04303301522903092,76.38580382569229
5.36,0.08191499128178148,-0.05905910365915278,76.58778892580662
5.37,0.08191499128178148,-0.05015572119797397,76.83465960372413
5.38,0.1116367142798655,-0.038907781355351403,77.11578506470197
5.39,0.14612512870217056,-0.021694575263739038,77.55282884857507
5.4,0.12589673232207294,-0.03415931070938937,78.09145578221329
5.41,0.18057348689402,-0.0009200161876551439,78.65252550475309
5.42,0.19843856567723492,-0.007449163325852938,79.14626686058811
5.43,0.1288608933757902,-0.008636280987343446,79.51716347717232
5.44,0.12233172781152109,-0.002107133849145652,79.69670578838506
5.45,0.09381169172710621,-0.0038878103413814142,79.67426299948346
5.46,0.04922910722998016,-0.06499469196660532,79.4604659052104
5.47,0.03556993264460731,-0.0679624861203316,79.12382407168653
5.48,0.04326072889208997,-0.06558825079735058,78.71985387145787
5.49,0.03436824573093814,-0.06618180962809583,78.29344088232762
5.5,0.042099098208876445,-0.07152383910480312,77.79969952649259
5.51,0.04506325926259372,-0.0691496037818221,77.2161870150512
5.52,0.04922910722998016,-0.07627230975076515,76.56534613690503
5.53,0.048027420316311,-0.06499469196660532,75.9263172529176
5.54,0.03496908918777273,-0.04065877990604991,75.2636643806127
5.55,0.015341536264509684,0.006173011839750642,74.60219270772366
5.56,0.44810905010723195,0.13547980311760424,73.96316382373622
5.57,1.3147656522454343,0.2037093907117712,73.3678393181361
5.58,1.1447670101917031,-0.25125345305446606,72.8516551733995
5.59,0.3886656041110639,-0.509837357668636,72.41461138952639
5.6,-0.21353976455901078,-0.3016465977847381,72.03308397819931
5.61,-0.1487287836817871,-0.13675595460370654,71.66218736161511
5.62,0.06469081218585676,-0.06024622132064329,71.24758636664359
5.63,0.14612512870217056,-0.03950134018609666,70.8318041722562
5.64,0.1532551377232743,-0.03297219304789886,70.50697433289106
5.65,0.16811599922231632,-0.012197633971814972,70.23766086607195
5.66,0.17881101275397188,-0.021694575263739038,70.01323297705603
5.67,0.185340178318241,-0.011010516310324464,69.7888050880401
5.68,0.18830433937195828,-0.018726781110012768,69.5643771990242
5.69,0.2014027267309522,-0.010416957479579209,69.2950637322051
5.7,0.21329942717627695,-0.009229839818088701,69.02575026538598
5.71,0.23945614566380913,0.019824864946891486,68.70092042602083
5.72,0.26857702520505855,0.015076394300929453,68.35246659833822
5.73,0.2923303698652524,0.023979776762108267,68.03826755371594
5.74,0.3238546232338402,0.02754112974657979,67.76895408689683
5.75,0.3898272347942774,0.05422159918857896,67.54452619788091
5.76,0.45760237672521836,0.05362804035783371,67.2976555199634
5.77,0.537835006327863,0.07024768761870082,67.07322763094747
5.78,0.625237701182067,0.07499615826466285,66.90549731389348
5.79,0.704869487327877,0.08627377604882268,66.91612810863633
5.8,0.7560212936197279,0.07143480528019133,67.78076608105556
5.81,0.78750549075786,0.08743121576877592,70.92157532786257
5.82,0.6947753172530561,0.0601571874960315,76.94687354823209
5.83,0.5634309375890162,0.05303448152708845,84.37543667465906
5.84,0.38922639133744286,0.021605541439127247,91.32088923999386
5.85,0.25904364235661653,0.005579453009005388,96.99773363268076
5.86,0.1835777041781929,-0.009229839818088701,101.18272316311975
5.87,0.14195928073478412,-0.015758986956286497,103.98807177581875
5.88,0.1270984192357421,-0.02644304590970107,105.64883815453656
5.89,0.11640340570408654,-0.02466236941746531,106.3670073993875
5.9,0.10867255322614823,-0.027630163571191576,106.20990787707636
5.91,0.09974001383454077,-0.03593998720162513,105.2224251654063
5.92,0.09797753969449266,-0.037720663693860894,103.6632419364536
5.93,0.10570839217243096,-0.03356575187864412,101.82293324652305
5.94,0.11936756675780381,-0.0311915165556631,99.69086830087181
5.95,0.12353341472519025,-0.02466236941746531,97.34618746036338
5.96,0.1276992626925767,-0.025849487078955815,94.91055426483271
5.97,0.1294617368326248,-0.014571869294795987,92.56587342432428
5.98,0.1371925893105631,-0.011010516310324464,90.42317768393018
5.99,0.14432259833166683,-0.007449163325852938,88.48128584423453
6.0,0.13482927171368042,-0.008636280987343446,86.76500309297067
6.01,0.14135843727794956,-0.005074928002871923,85.25070544182115
6.02,0.13482927171368042,-0.004481369172126669,83.90413810772563
6.03,0.12233172781152109,-0.002700692679890906,82.60245635143329
6.04,0.11936756675780381,-0.010416957479579209,81.26651981208063
6.05,0.11460087533358279,-0.014571869294795987,79.87624809959779
6.06,0.1140000318767482,-0.008636280987343446,78.47298319354036
6.07,0.10390586180192721,-0.012197633971814972,77.2161870150512
6.08,0.10927339668298282,-0.018726781110012768,76.27358988118434
6.09,0.09617500932398891,-0.01338475163330548,75.72433215280327
6.1,0.08547999579233333,-0.016946104617777003,75.56723263049213
6.11,0.08964584375971978,-0.008042722156598193,75.71252015864454
6.12,0.08608083924916791,-0.018726781110012768,76.03853119742556
6.13,0.1021433876618791,-0.0032942515106361603,76.73425765337491
6.14,0.1377934327673977,0.003205217686024372,77.57527163747667
6.15,0.12649757577890752,0.012108600147203183,78.10326777637202
6.16,0.14492344178850142,0.016857070793165216,78.35013845428954
6.17,0.21566274477315964,0.0447246578966549,78.57456634330546
6.18,0.1520534508096051,0.028134688577325043,78.9218389715722
6.19,0.1217308843546865,0.03228960039254182,79.36006395486118
6.2,0.08371752165228523,0.024573335592853518,79.74159136618825
6.21,0.055758272794249296,-0.009823398648833956,79.90932168324224
6.22,0.028399867393047954,-0.03950134018609666,79.74159136618825
6.23,0.023072388742447984,-0.03950134018609666,79.36006395486118
6.24,0.030202397763551703,-0.03534642837087988,78.91120817682933
6.25,0.02603654979616526,-0.03534642837087988,78.42809761573717
6.26,0.036731563327820835,-0.02525592824821056,77.88947068209896
6.27,0.03316655881726898,-0.03356575187864412,77.3177701648163
6.28,0.03793325024149,-0.028817281232682086,76.72244565921618
6.29,0.042099098208876445,-0.005074928002871923,76.06097398632714
6.3,-0.010815182223022492,0.0364445122077586,75.38769031927939
6.31,0.32325377977700565,0.14794453856325457,74.73684944113322
6.32,1.1459686971053722,0.22801562483078935,74.12026334604738
6.33,1.3760116286121062,-0.10295277919276433,73.58163641240917
6.34,0.41065647463120963,-0.469505035119496,73.11033784547573
6.35,-0.23609142230553545,-0.284463069634663,72.70636764524707
6.36,-0.26881736258779243,-0.13556883694221603,72.29058545085968
6.37,-0.039335218307437365,-0.03415931070938937,71.86417246172944
6.38,0.08371752165228523,-0.013978310464050734,71.48264505040237
6.39,0.11283840119353468,-0.0009200161876551439,71.13537242213563
6.4,0.1371925893105631,0.009140805993476914,70.82117337751335
6.41,0.1371925893105631,0.018637747285400977,70.54004791653551
6.42,0.14075759382111497,0.016857070793165216,70.2707344497164
6.43,0.15978430328754342,0.016857070793165216,69.9789781939957
6.44,0.17941185621080646,0.025166894423598773,69.68722193827502
6.45,0.19070771319929664,0.04178654168446589,69.4179084714559
6.46,0.20853273575205591,0.04769245205038117,69.1485950046368
6.47,0.2293219193585325,0.04650533438889066,68.86865074307484
6.48,0.24834862882496095,0.0447246578966549,68.56626369261129
6.49,0.29533458714942534,0.07024768761870082,68.24025265383027
6.5,0.34228048924343407,0.07499615826466285,67.9378656033667
6.51,0.41894811433552687,0.08568021721807742,67.646109347646
6.52,0.5051491222760617,0.09574103939920948,67.3767958808269
6.53,0.5859825953355409,0.11117356899858609,67.15236799181099
6.54,0.6656544377118067,0.12245118678274591,67.02834205314429
6.55,0.7203311922837536,0.11414136315231237,67.18544157545544
6.56,0.7458870673144513,0.10523798069113355,68.48712333174777
6.57,0.6930128431130079,0.09217968641473796,72.35791381756447
6.58,0.5521350806005261,0.0744025994339176,78.77655144341979
6.59,0.385661386826891,0.06253142281901251,85.97950548141496
6.6,0.25491785061968575,0.03822518869999436,92.54343063542268
6.61,0.1532551377232743,0.02041842377763674,97.7383456664333
6.62,0.1045067052587618,0.018637747285400977,101.39652025739281
6.63,0.07478498226067776,0.004985894178260134,103.70812751425679
6.64,0.06885666015324321,0.006766570670495896,104.97555448748881
6.65,0.05219326828369744,0.00439233534751488,105.31219632101268
6.66,0.05635911625108388,0.006766570670495896,104.79601217627607
6.67,0.05872243384796657,0.012108600147203183,103.62898715339328
6.68,0.05812159039113199,0.006766570670495896,102.04736113553898
6.69,0.06529165564269135,0.004985894178260134,100.11728129000207
6.7,0.07774914331439503,0.013295717808693692,97.94033076654763
6.71,0.07418413880384317,0.010921482485712675,95.6180927149408
6.72,0.08311667819545064,0.013889276639438945,93.23915709137204
6.73,0.08608083924916791,0.022199100269872502,90.92754983450806
6.74,0.09857838315132725,0.025760453254344028,88.78485409411395
6.75,0.0712199777501259,0.018044188454655725,86.8654050433199
6.76,0.08844415684605061,0.021605541439127247,85.18337707511637
6.77,0.08015251714173337,0.03347671805403233,83.6797102187097
6.78,0.08371752165228523,0.018637747285400977,82.23155973484909
6.79,0.0735832953470086,0.023979776762108267,80.73970487260115
6.8,0.06825581669640862,0.012702158977948437,79.22540722145162
6.81,0.06469081218585676,0.02041842377763674,77.78906873174974
6.82,0.06408996872902219,0.013295717808693692,76.53227255326058
6.83,0.04862826377314558,0.015669953131674706,75.52234705268894
6.84,0.056959959707918464,0.025166894423598773,74.83725139148244
6.85,0.06885666015324321,0.04238010051521114,74.54667633517762
6.86,0.09084753067338894,0.03585095337701335,74.59156191298081
6.87,0.08784331338921603,0.04000586519223012,74.84906338564117
6.88,0.18057348689402,0.05659583451155998,75.25303358586983
6.89,0.18473933486140642,0.0666863346342293,75.70188936390167
6.9,0.14372175487483224,0.06906056995721031,76.18381872557796
6.91,0.09913917037770618,0.06965412878795557,76.80158602007968
6.92,0.06941744737962215,0.05006668737336218,77.51975526493064
6.93,0.027238236709834426,0.010921482485712675,78.18122693781966
6.94,0.036130719870986254,0.01745062962391047,78.65252550475309
6.95,0.021269858371944235,0.003798776516769626,78.8993961826706
6.96,0.036731563327820835,-0.0032942515106361603,78.91120817682933
6.97,0.024834862882496096,-0.00032645735690988977,78.75410865451819
6.98,0.04506325926259372,0.003798776516769626,78.49542598244194
6.99,0.03376740227410356,-0.002700692679890906,78.15878414891807
7.0,0.04386157234892456,-0.002700692679890906,77.76662594284814
7.01,0.02070907114556529,0.03525739454626809,77.3402129537179
7.02,0.042099098208876445,0.0744025994339176,76.84647159788287
7.03,0.6561611110938202,0.19480600825059238,76.24051629753988
7.04,1.4306883831840533,0.15625436219368813,75.54478984159053
7.05,0.8719440245583467,-0.28386951080391776,74.88213696928563
7.06,0.14195928073478412,-0.391214625344197,74.25492007945692
7.07,-0.31696495159547033,-0.19608215973669468,73.68203836275839
7.08,-0.18261635464725756,-0.060839780151388544,73.17766621218051
7.09,0.03140408467722087,0.002611658855279118,72.73944122889152
7.1,0.13302674134317666,0.013889276639438945,72.33547102866287
7.11,0.13302674134317666,0.021011982608381996,71.98819840039613
7.12,0.15978430328754342,0.021011982608381996,71.67399935577384
7.13,0.15621929877699156,0.013295717808693692,71.33735752224996
7.14,0.18950602628562746,0.023386217931363012,70.97827289982449
7.15,0.1936718742530139,0.02041842377763674,70.60737628324028
7.16,0.21506190131632505,0.03288315922328708,70.24829166081481
7.17,0.22339359725109795,0.03703807103850385,69.88920703838934
7.18,0.25431700716285116,0.03525739454626809,69.55256520486546
7.19,0.26917786866189314,0.04531821672740015,69.21592337134157
7.2,0.31732545766957104,0.05422159918857896,68.86865074307484
7.21,0.34584549375398593,0.05718939334230523,68.50956612064937
7.22,0.4219523316196998,0.07380904060317235,68.1504814982239
7.23,0.4849607821264197,0.07618327592615336,67.80320886995716
7.24,0.6032468306619213,0.09633459822995474,67.52208340897931
7.25,0.6662552811686412,0.10048951004517151,67.32009830886498
7.26,0.757783767759776,0.11176712782933135,67.2976555199634
7.27,0.8000030346600193,0.0981152747221905,67.82565165885875
7.28,0.8106980481916749,0.0981152747221905,70.1030041326624
7.29,0.6953761607098906,0.07143480528019133,75.15145043610474
7.3,0.5574625592511261,0.05897006983454099,82.08627220669668
7.31,0.3773697471225737,0.021605541439127247,89.05416756093307
7.32,0.27630787768299686,0.01151504131645793,94.97788263153748
7.33,0.19723687876356577,-0.002107133849145652,99.48888320075748
7.34,0.18177517380768915,-0.002700692679890906,102.61906165282164
7.35,0.1526542942664397,-0.002700692679890906,104.53851070361569
7.36,0.1621476208844261,-0.005074928002871923,105.42441026552063
7.37,0.13839427622423228,-0.009823398648833956,105.4350410602635
7.38,0.16811599922231632,-0.0032942515106361603,104.66135544286651
7.39,0.15085176389593596,-0.017539663448522258,103.30415731402813
7.4,0.17524600824342002,-0.015165428125541242,101.5866933633484
7.41,0.17168100373286815,-0.018133222279267513,99.64598272306863
7.42,0.19547440462351764,-0.0062620456643624305,97.4690321996142
7.43,0.18830433937195828,-0.018726781110012768,95.14679414800736
7.44,0.21566274477315964,-0.0056684868336171765,92.86826047478783
7.45,0.19843856567723492,-0.008636280987343446,90.70312194549214
7.46,0.2192277492837115,-0.0015135750184003978,88.72815652215205
7.47,0.20556857469833864,-0.012197633971814972,87.00006177672945
7.48,0.2269586017616498,0.0008606603045806184,85.46332133667833
7.49,0.20316520087100032,-0.006855604495107684,84.07186842477964
7.5,0.2114968968057732,0.002611658855279118,82.72530109068411
7.51,0.19487356116668306,-0.012197633971814972,81.356290967687
7.52,0.21329942717627695,-0.002107133849145652,79.89869088849939
7.53,0.19186934388251015,-0.008042722156598193,78.46235239879749
7.54,0.2097344226657251,-0.00032645735690988977,77.1937442261496
7.55,0.18714270868874477,-0.01338475163330548,76.1956307197367
7.56,0.19960019636044846,-0.008042722156598193,75.52234705268894
7.57,0.18473933486140642,-0.009229839818088701,75.21877880280951
7.58,0.21982859274054609,0.015669953131674706,75.27547637477143
7.59,0.22755944521848437,0.015669953131674706,75.62274900303817
7.6,0.25547863784606467,0.028728247408070298,76.04916199216842
7.61,0.31255876624535006,0.03407027688477758,76.43068940349548
7.62,0.32265293632017106,0.04238010051521114,76.80158602007968
7.63,0.2537161637060166,0.03288315922328708,77.23862980395279
7.64,0.2441827808575745,0.03703807103850385,77.81151152065132
7.65,0.18890518282879287,0.002611658855279118,78.4174668209943
7.66,0.18057348689402,-0.02050745760224853,78.88876538792775
7.67,0.14908928975588784,-0.0311915165556631,79.15807885474685
7.68,0.17700848238346814,-0.021101016432993783,79.16870964948971
7.69,0.15085176389593596,-0.038907781355351403,78.94428176047379
7.7,0.17941185621080646,-0.0234752517559748,78.58519713804831
7.71,0.16571262539497797,-0.03356575187864412,78.19303893197839
7.72,0.19723687876356577,-0.024068810586720054,77.75481394868942
7.73,0.16631346885181256,-0.0311915165556631,77.26107259285439
7.74,0.15802182914749532,0.013295717808693692,76.70000287031459
7.75,0.23589114115325727,0.06965412878795557,76.06097398632714
7.76,1.0229159571456496,0.20430294954251646,75.39832111402225
7.77,1.7130447516658516,0.06727989346497455,74.74866143529195
7.78,0.8689398072741739,-0.3764053325171029,74.15333692969183
7.79,0.11103587082303093,-0.3710633030403956,73.58163641240917
7.8,-0.11424036925948204,-0.18361742429104436,73.05364027351382
7.81,0.042099098208876445,-0.0863331319318972,72.58234170658038
7.82,0.21746527514366337,-0.03178507538640836,72.14529792270727
7.83,0.23112444972903623,-0.03356575187864412,71.71888493357703
7.84,0.2715411862587758,-0.011604075141069717,71.33735752224996
7.85,0.26441117723767216,-0.008042722156598193,71.01134648346894
7.86,0.28876536535470054,-0.009229839818088701,70.68651664410379
7.87,0.2774695083662104,-0.01635254578703175,70.3723175994815
7.88,0.3161237707559019,0.0014542191353258726,70.0805613437608
7.89,0.3119579227885155,-0.012197633971814972,69.77699309388137
7.9,0.3470471806676551,-0.0009200161876551439,69.40727767671305
7.91,0.3404779588729303,-0.0056684868336171765,69.01393827122725
7.92,0.3868630737405601,0.007953688331986404,68.66666564296051
7.93,0.4029256221532713,0.010921482485712675,68.34183580359536
7.94,0.46593407265999126,0.029321806238815553,68.02763675897307
7.95,0.5039874915928482,0.028728247408070298,67.73588050325237
7.96,0.6062109917156385,0.0524409226963432,67.47719783117613
7.97,0.6763494512434622,0.0524409226963432,67.26458193631895
7.98,0.7786130075967083,0.06549921697273879,67.16299878655384
7.99,0.8190297441264478,0.05778295217305048,67.47719783117613
8.0,0.880235664262664,0.06787345229571981,69.39546568255432
8.01,0.830325601114938,0.04591177555814541,74.25492007945692
8.02,0.7417612755775205,0.04531821672740015,81.36810296184572
8.03,0.5438033846657532,0.012108600147203183,88.58286899399963
8.04,0.4231139623029133,0.007953688331986404,94.79834032032475
8.05,0.292931213322087,-0.015758986956286497,99.6566135178115
8.06,0.2501511591954647,-0.015758986956286497,103.06791743085348
8.07,0.19723687876356577,-0.03712710486311564,105.21061317124759
8.08,0.20556857469833864,-0.03475286954013462,106.31030982742558
8.09,0.18001269966764105,-0.04125233873679516,106.53473771644151
8.1,0.20080188327411763,-0.02466236941746531,105.92878241609853
8.11,0.18057348689402,-0.04125233873679516,104.63891265396492
8.12,0.20436688778466947,-0.030597957724917847,102.95570348634551
8.13,0.18473933486140642,-0.05074928002871922,101.07050921861179
8.14,0.21506190131632505,-0.03475286954013462,98.93844427296054
8.15,0.20556857469833864,-0.04065877990604991,96.67290379331563
8.16,0.2346894542395881,-0.025849487078955815,94.40618211425483
8.17,0.21566274477315964,-0.03178507538640836,92.24104358495913
8.18,0.24005698912064372,-0.021101016432993783,90.27670895636189
8.19,0.21746527514366337,-0.030004398894172595,88.57105699984089
8.2,0.24362199363119555,-0.017539663448522258,87.10164492649456
8.21,0.22103027965421523,-0.027036604740446325,85.79996317020222
8.22,0.24005698912064372,-0.015758986956286497,84.59986456367498
8.23,0.21390027063311154,-0.02822372240193683,83.4328395407922
8.24,0.23172529318587082,-0.012197633971814972,82.19848615120463
8.25,0.20080188327411763,-0.0311915165556631,80.85191881710911
8.26,0.2293219193585325,-0.011604075141069717,79.482908694112
8.27,0.19960019636044846,-0.028817281232682086,78.26036729868316
8.28,0.2168644316868288,-0.01338475163330548,77.27288458701312
8.29,0.19487356116668306,-0.025849487078955815,76.66692928667014
8.3,0.2192277492837115,-0.014571869294795987,76.40824661459389
8.31,0.18890518282879287,-0.028817281232682086,76.44250139765421
8.32,0.23112444972903623,0.0020477779660711265,76.6551172925114
8.33,0.2323261366427054,-0.012791192802560225,76.94687354823209
8.34,0.2519136333355128,0.006173011839750642,77.23862980395279
8.35,0.3018637527136945,0.018044188454655725,77.51975526493064
8.36,0.3286213146580612,0.0364445122077586,77.85639709845451
8.37,0.23645192837963622,0.018044188454655725,78.30525287648635
8.38,0.23645192837963622,0.03347671805403233,78.77655144341979
8.39,0.18473933486140642,0.0008606603045806184,79.12382407168653
8.4,0.170479316819199,-0.028817281232682086,79.2927355881564
8.41,0.13186511065996315,-0.05727842716691702,79.2927355881564
8.42,0.15742098569066074,-0.037720663693860894,79.11319327694366
8.43,0.13126426720312856,-0.05252995652095498,78.76473944926106
8.44,0.1621476208844261,-0.04006522107530465,78.3383264601308
8.45,0.14552428524533598,-0.05371707418244549,77.88947068209896
8.46,0.1710801602760336,-0.04243945639828567,77.38509853152108
8.47,0.1478876028422187,-0.05134283885946448,76.83465960372413
8.48,0.15385598118010888,-0.0032942515106361603,76.20626151447956
8.49,0.13186511065996315,0.03050892390030606,75.48809226962861
8.5,0.6769502947002968,0.18590262578941358,74.79236581367927
8.51,1.5145260735277053,0.19421244941984714,74.18759171275215
8.52,1.139439531541103,-0.2654691870508149,73.61470999605362
8.53,0.3975580872722157,-0.4665372409657697,73.06545226767255
8.54,-0.11720453031319931,-0.25181733394367406,72.59415370073911
8.55,-0.02864020477578179,-0.13141392512699926,72.13348592854854
8.56,0.18890518282879287,-0.04006522107530465,71.67399935577384
8.57,0.21982859274054609,-0.05074928002871922,71.25821716138645
8.58,0.25547863784606467,-0.02644304590970107,70.89913253896098
8.59,0.2424203067175264,-0.03415931070938937,70.5849334943387
8.6,0.2774695083662104,-0.01932033994075802,70.31562002751959
8.61,0.25904364235661653,-0.027036604740446325,70.05811855485922
8.62,0.29709706128947344,-0.011604075141069717,69.75455030497979
8.63,0.2917695826388735,-0.016946104617777003,69.42972046561464
8.64,0.32505631014750935,-0.004481369172126669,69.08126663793203
8.65,0.31792630112640563,-0.010416957479579209,68.75643679856688
8.66,0.3595046683393588,0.008547247162731659,68.46468054284618
8.67,0.3642713597635798,0.00439233534751488,68.19536707602708
8.68,0.4362123496619072,0.028134688577325043,67.90361082030638
8.69,0.46653491611682585,0.028728247408070298,67.62366655874442
8.7,0.5598659330784644,0.0441607770074469,67.35435309192532
8.71,0.6264393880957362,0.04709889321963591,67.0850396251062
8.72,0.7351920537827957,0.07143480528019133,66.92794010279506
8.73,0.7786130075967083,0.05659583451155998,67.0850396251062
8.74,0.8564823196024701,0.0732154817724271,68.46468054284618
8.75,0.8350522363087034,0.05066024620410744,72.5374561287772
8.76,0.7845413297041428,0.06075074632677675,79.23603801619448
8.77,0.5984801392377003,0.015669953131674706,86.5523871981135
8.78,0.4617682246926048,0.015076394300929453,93.09268836380376
8.79,0.31436129661585377,-0.024068810586720054,98.2994153889731
8.8,0.2656128641513413,-0.01932033994075802,102.04736113553898
8.81,0.20020103981728304,-0.04362657405977618,104.47118233691091
8.82,0.21329942717627695,-0.02822372240193683,105.8059376768477
8.83,0.17941185621080646,-0.04184589756754041,106.19809588291763
8.84,0.20200357018778678,-0.025849487078955815,105.76105209904452
8.85,0.18001269966764105,-0.03653354603237039,104.61646986506332
8.86,0.20436688778466947,-0.027036604740446325,103.06791743085348
8.87,0.185340178318241,-0.03534642837087988,101.26186352398325
8.88,0.22042943619738067,-0.0234752517559748,99.19712694503679
8.89,0.20496773124150405,-0.03237863421715361,96.93040526597599
8.9,0.23765361529330536,-0.015758986956286497,94.63061000327075
8.91,0.2192277492837115,-0.03415931070938937,92.43121669091472
8.92,0.2441827808575745,-0.015165428125541242,90.41136568977144
8.93,0.21329942717627695,-0.027630163571191576,88.60531178290123
8.94,0.24121861980385723,-0.014571869294795987,87.05675934869137
8.95,0.21033526612255968,-0.030004398894172595,85.71019201459585
8.96,0.22876113213215354,-0.015758986956286497,84.49828141390988
8.97,0.19487356116668306,-0.03178507538640836,83.32062559628423
8.98,0.22519612762160168,-0.007449163325852938,82.04138662889349
8.99,0.185340178318241,-0.0311915165556631,80.59441734444874
9.0,0.2114968968057732,-0.01338475163330548,79.12382407168653
9.01,0.18237601726452374,-0.02941084006342734,77.84458510429577
9.02,0.2091335792088905,-0.006855604495107684,76.83465960372413
9.03,0.1764476951570892,-0.030597957724917847,76.16137593667638
9.04,0.20260441364462137,-0.015165428125541242,75.83654609731123
9.05,0.17700848238346814,-0.030004398894172595,75.80229131425091
9.06,0.1990394091340695,-0.02050745760224853,75.98183362546364
9.07,0.16631346885181256,-0.04065877990604991,76.2180735086383
9.08,0.19783772222040033,-0.01338475163330548,76.44250139765421
9.09,0.1621476208844261,-0.03534642837087988,76.70000287031459
9.1,0.22755944521848437,0.005579453009005388,77.0708994868988
9.11,0.22103027965421523,-0.008636280987343446,77.51975526493064
9.12,0.24834862882496095,0.016857070793165216,78.01349662076565
9.13,0.267976181748224,0.016857070793165216,78.45054040463876
9.14,0.3095946051916328,0.04531821672740015,78.68678028781342
9.15,0.20496773124150405,0.008547247162731659,78.709223076715
9.16,0.23112444972903623,0.04238010051521114,78.57456634330546
9.17,0.16691431230864714,0.006766570670495896,78.3383264601308
9.18,0.1764476951570892,-0.015165428125541242,78.02412741550852
9.19,0.11580256224725195,-0.04600080938275719,77.58708363163541
9.2,0.1532551377232743,-0.027036604740446325,77.05908749274006
9.21,0.11223755773670009,-0.05371707418244549,76.4873869754574
9.22,0.14969013321272243,-0.0311915165556631,75.903874464016
9.23,0.1270984192357421,-0.04778148587499295,75.28610716951428
9.24,0.16455099471176446,-0.0311915165556631,74.636447490784
9.25,0.13659174585372852,-0.04243945639828567,74.03049219044101
9.26,0.160385146744378,0.00026710147383536434,73.44697967899961
9.27,0.10154254420504452,0.02754112974657979,72.87409796230108
9.28,0.5788525863144373,0.18471550812792306,72.33547102866287
9.29,1.4134642040881285,0.2173315658773748,71.83109887808499
9.3,1.2678197501514257,-0.21504636437900557,71.40468588895473
9.31,0.47602824273481226,-0.49977653548750395,70.98890369456736
9.32,-0.08335701557818448,-0.26606274588156015,70.57430269959583
9.33,-0.06192693228441768,-0.14150442524966858,70.15852050520844
9.34,0.18177517380768915,-0.03178507538640836,69.7888050880401
9.35,0.21390027063311154,-0.04422013289052143,69.47460604341782
9.36,0.2614470161839549,-0.0056684868336171765,69.21592337134157
9.37,0.23052360627220164,-0.022881692925229544,68.96905269342406
9.38,0.282837043247266,0.0008606603045806184,68.74580600382401
9.39,0.2471869981417474,-0.019913898771503274,68.50956612064937
9.4,0.29649621783263885,0.003205217686024372,68.27450743689059
9.41,0.2703394993451067,-0.008042722156598193,68.03826755371594
9.42,0.3286213146580612,0.0144828354701842,67.79139687579843
9.43,0.3000612223431907,-0.002700692679890906,67.52208340897931
9.44,0.36190804216669714,0.03228960039254182,67.25276994216021
9.45,0.34524465029715135,0.012108600147203183,67.0058992642427
9.46,0.42727981027029976,0.04650533438889066,66.77084058048392
9.47,0.43797482380195535,0.026947570915834534,66.54641269146799
9.48,0.5491308633163532,0.06846701112646505,66.32198480245208
9.49,0.5883859691628792,0.05184736386559794,66.10818770817902
9.5,0.7185687181437056,0.08449309955658692,65.97353097476946
9.51,0.7518554456523414,0.06312498164975777,66.07511412453457
9.52,0.8457873060708145,0.08980545109175694,67.0850396251062
9.53,0.8243572227770478,0.06312498164975777,70.34987481057992
9.54,0.8077338871379577,0.0821188642336059,76.56534613690503
9.55,0.6228743835851843,0.04297365934595639,84.07186842477964
9.56,0.49922080016862713,0.05066024620410744,90.96180461756839
9.57,0.32028961872328837,-0.0032942515106361603,96.50399227684575
9.58,0.28403873016093517,0.006766570670495896,100.5661370680339
9.59,0.18714270868874477,-0.03712710486311564,103.22501695316463
9.6,0.2097344226657251,-0.0009200161876551439,104.68379823176811
9.61,0.15858261637387425,-0.03356575187864412,105.1432848045428
9.62,0.20260441364462137,-0.011604075141069717,104.78420018211733
9.63,0.15385598118010888,-0.03712710486311564,103.64079914755202
9.64,0.1859410217750756,-0.018726781110012768,101.9800327688342
9.65,0.15145260735277055,-0.030004398894172595,100.0050673454941
9.66,0.2037660443278349,-0.012197633971814972,97.80567403313809
9.67,0.1621476208844261,-0.03356575187864412,95.50587877043283
9.68,0.2186269058268769,-0.004481369172126669,93.2273450972133
9.69,0.17524600824342002,-0.03831422252460615,91.00669019537158
9.7,0.22159106688059418,-0.008042722156598193,88.9419536164251
9.71,0.1758468517002546,-0.02644304590970107,87.04494735453264
9.72,0.2186269058268769,-0.0032942515106361603,85.35110739217038
9.73,0.16987847336236442,-0.025849487078955815,83.86988332466531
9.74,0.20616941815517323,-0.005074928002871923,82.5575707736301
9.75,0.15621929877699156,-0.02050745760224853,81.28896260098222
9.76,0.20020103981728304,0.00439233534751488,80.03334762190894
9.77,0.14432259833166683,-0.030597957724917847,78.69741108255627
9.78,0.1913085566561312,0.003205217686024372,77.3177701648163
9.79,0.1478876028422187,-0.018726781110012768,76.06097398632714
9.8,0.19307103079617932,0.00026710147383536434,75.10656485830155
9.81,0.13422842825684583,-0.027630163571191576,74.47934796847285
9.82,0.18950602628562746,0.006173011839750642,74.198222507495
9.83,0.13659174585372852,-0.028817281232682086,74.25492007945692
9.84,0.1710801602760336,-0.0062620456643624305,74.47934796847285
9.85,0.11580256224725195,-0.03237863421715361,74.73684944113322
9.86,0.19960019636044846,0.024573335592853518,74.92702254708881
9.87,0.16395015125492987,0.0020477779660711265,75.18570521916506
9.88,0.21566274477315964,0.021011982608381996,75.6345609971969
9.89,0.23825445875013995,0.019824864946891486,76.24051629753988
9.9,0.2751061907693277,0.05125380503485269,76.80158602007968
9.91,0.15918345983070883,0.021605541439127247,77.17130143724802
9.92,0.18950602628562746,0.06193786398826726,77.32840095955916
9.93,0.10927339668298282,-0.008042722156598193,77.3402129537179
9.94,0.10927339668298282,-0.012197633971814972,77.22799900920994
9.95,0.057560803164753045,-0.0471879270442477,77.01420191493688
9.96,0.11283840119353468,-0.009823398648833956,76.72244565921618
9.97,0.05635911625108388,-0.03653354603237039,76.37517303094944
9.98,0.11460087533358279,-0.00032645735690988977,75.95939083656205
9.99,0.06408996872902219,-0.038907781355351403,75.44320669182544
