time_s,ECG,NIBP
0.0,-0.19488460958978032,-1.404676557998425
0.01,-0.19226666575586573,-1.4351247492845183
0.02,-0.19044019331359976,-1.4351247492845183
0.03,-0.18934430984824016,-1.343780175426239
0.04,-0.1951890216634913,-1.4960211318567043
0.05,-0.2043213838748212,-1.4351247492845183
0.06,-0.20352991248317262,-1.4960211318567043
0.07,-0.19744167100895268,-1.404676557998425
0.08,-0.19044019331359976,-1.404676557998425
0.09,-0.18660460118484118,-1.313331984140146
0.1,-0.18295165630030924,-1.404676557998425
0.11,-0.15652868830219469,-1.4351247492845183
0.12,-0.1336369003591277,-1.5264693231427973
0.13,-0.12937513132717374,-1.404676557998425
0.14,-0.11658982423131187,-1.5264693231427973
0.15,-0.11202364312564692,-1.282883792854053
0.16,-0.12681806990800137,-1.4351247492845183
0.17,-0.14678750194344278,-1.404676557998425
0.18,-0.1739410589184637,-1.4351247492845183
0.19,-0.20219049935884423,-1.343780175426239
0.2,-0.2158890426758391,-1.4655729405706113
0.21,-0.22295140278593423,-1.374228366712332
0.22,-0.22672611249995062,-1.404676557998425
0.23,-0.23847641854519508,-1.374228366712332
0.24,-0.28413822960184465,-1.404676557998425
0.25,-0.15841604315920285,-1.4351247492845183
0.26,0.699478062973129,-1.404676557998425
0.27,2.1654048451358063,-1.343780175426239
0.28,2.4801669293529773,-1.5569175144288903
0.29,0.8206340683101059,-1.404676557998425
0.3,-0.5119602255671548,-1.4960211318567043
0.31,-0.36852125643453304,-1.404676557998425
0.32,-0.12286071294975841,-1.4655729405706113
0.33,-0.1745498830658857,-1.374228366712332
0.34,-0.19257107782957672,-1.374228366712332
0.35,-0.17211458647619773,-1.313331984140146
0.36,-0.16188634079950823,-1.4351247492845183
0.37,-0.14952721060684174,-1.4351247492845183
0.38,-0.13089719169572872,-1.404676557998425
0.39,-0.11062334758657633,-1.4655729405706113
0.4,-0.09473303733886228,-1.5264693231427973
0.41,-0.07111066041888892,-1.343780175426239
0.42,-0.03585974228315545,-1.4960211318567043
0.43,0.004261769031953959,-1.4655729405706113
0.44,0.0512629932129319,-1.4655729405706113
0.45,0.11232805519935792,-1.343780175426239
0.46,0.19226666575586573,-1.4960211318567043
0.47,0.29327059181317455,-1.343780175426239
0.48,0.40590305908624347,-1.4655729405706113
0.49,0.5209099405342581,-1.343780175426239
0.5,0.615216800969925,-1.4960211318567043
0.51,0.6720200939243971,-1.404676557998425
0.52,0.6868145207067515,-1.4960211318567043
0.53,0.6317159353650611,-1.313331984140146
0.54,0.49363461872975284,-1.404676557998425
0.55,0.311109139332639,-1.404676557998425
0.56,0.1432563218883952,-1.4351247492845183
0.57,0.019056195814308414,-1.343780175426239
0.58,-0.06270888718446539,-1.5569175144288903
0.59,-0.10971011136544334,-1.343780175426239
0.6,-0.13716808041417528,-1.4655729405706113
0.61,-0.14910103370364636,-1.343780175426239
0.62,-0.15713751244961668,-1.404676557998425
0.63,-0.16219075287321924,-1.374228366712332
0.64,-0.1666351691493998,-1.5264693231427973
0.65,-0.17485429513959672,-1.313331984140146
0.66,-0.17960312348948826,-1.4655729405706113
0.67,-0.1762545906786673,-1.404676557998425
0.68,-0.17181017440248675,-1.374228366712332
0.69,-0.16706134605259518,-1.374228366712332
0.7,-0.16249516494693023,-1.4655729405706113
0.71,-0.15713751244961668,-1.404676557998425
0.72,-0.1530583906618893,-1.4655729405706113
0.73,-0.14788338540880236,-1.313331984140146
0.74,-0.1434389691326218,-1.374228366712332
0.75,-0.14757897333509137,-1.374228366712332
0.76,-0.15744192452332767,-1.4655729405706113
0.77,-0.1634084011680632,-1.282883792854053
0.78,-0.16724399329682177,-1.374228366712332
0.79,-0.17047076127815836,-1.374228366712332
0.8,-0.17333223477104173,-1.4655729405706113
0.81,-0.17759400380299567,-1.343780175426239
0.82,-0.18203842007917623,-1.404676557998425
0.83,-0.18295165630030924,-1.313331984140146
0.84,-0.18082077178433226,-1.4655729405706113
0.85,-0.18282989147082482,-1.343780175426239
0.86,-0.1873960725764898,-1.404676557998425
0.87,-0.18934430984824016,-1.374228366712332
0.88,-0.19013578123988875,-1.4351247492845183
0.89,-0.19196225368215475,-1.404676557998425
0.9,-0.19287548990328773,-1.4351247492845183
0.91,-0.19299725473277213,-1.343780175426239
0.92,-0.1933016668064831,-1.4960211318567043
0.93,-0.19378872612442072,-1.343780175426239
0.94,-0.19299725473277213,-1.404676557998425
0.95,-0.19086637021679514,-1.343780175426239
0.96,-0.19208401851163914,-1.404676557998425
0.97,-0.18983136916617777,-1.374228366712332
0.98,-0.18343871561824682,-1.4960211318567043
0.99,-0.16036428043095324,-1.343780175426239
1.0,-0.12785307095861875,-1.404676557998425
1.01,-0.1139718803973973,-1.343780175426239
1.02,-0.10069951398359782,-1.4351247492845183
1.03,-0.0936980362882449,-1.374228366712332
1.04,-0.1031348105732858,-1.5264693231427973
1.05,-0.11092775966028733,-1.343780175426239
1.06,-0.12864454235026734,-1.4655729405706113
1.07,-0.1660263450019778,-1.404676557998425
1.08,-0.19348431405070973,-1.404676557998425
1.09,-0.19744167100895268,-1.4655729405706113
1.1,-0.19896373137750767,-1.343780175426239
1.11,-0.20200785211461764,-1.404676557998425
1.12,-0.24322524689508665,-1.4351247492845183
1.13,-0.2290396442601542,-1.374228366712332
1.14,0.29436647527853416,-1.404676557998425
1.15,1.6570975644531836,-1.374228366712332
1.16,2.736177483343926,-1.404676557998425
1.17,1.8041894784703374,-1.313331984140146
1.18,0.029284441490997917,-1.374228366712332
1.19,-0.3951877540916164,-1.374228366712332
1.2,-0.11488511661853029,-1.4351247492845183
1.21,-0.11719864837873387,-1.282883792854053
1.22,-0.16888781849486117,-1.4960211318567043
1.23,-0.1554936872515773,-1.404676557998425
1.24,-0.13948161217437885,-1.404676557998425
1.25,-0.12846189510604075,-1.343780175426239
1.26,-0.11914688565048424,-1.4351247492845183
1.27,-0.10757922684946636,-1.25243560156796
1.28,-0.09016685623319733,-1.4960211318567043
1.29,-0.06666624414270836,-1.4351247492845183
1.3,-0.04073033546253141,-1.404676557998425
1.31,-0.0074885370132905275,-1.343780175426239
1.32,0.03251120947233448,-1.404676557998425
1.33,0.07951243365331243,-1.343780175426239
1.34,0.1447783822569502,-1.404676557998425
1.35,0.23257082431520174,-1.374228366712332
1.36,0.34562946849146603,-1.343780175426239
1.37,0.4653851782893723,-1.374228366712332
1.38,0.5722338161619323,-1.4351247492845183
1.39,0.657043019897816,-1.282883792854053
1.4,0.7084886603549745,-1.4960211318567043
1.41,0.706479540668482,-1.404676557998425
1.42,0.618869745854457,-1.374228366712332
1.43,0.4560701688338158,-1.343780175426239
1.44,0.27543204429371015,-1.374228366712332
1.45,0.12237365363182082,-1.404676557998425
1.46,0.011872070874728885,-1.404676557998425
1.47,-0.05662064571024545,-1.374228366712332
1.48,-0.0935153890440183,-1.374228366712332
1.49,-0.11019717068338093,-1.374228366712332
1.5,-0.12127777016646123,-1.343780175426239
1.51,-0.12937513132717374,-1.374228366712332
1.52,-0.13321072345593232,-1.4655729405706113
1.53,-0.13655925626675328,-1.313331984140146
1.54,-0.1362548441930423,-1.404676557998425
1.55,-0.13260189930851032,-1.404676557998425
1.56,-0.13077542686624433,-1.4351247492845183
1.57,-0.12925336649768934,-1.343780175426239
1.58,-0.12602659851635278,-1.404676557998425
1.59,-0.12237365363182082,-1.343780175426239
1.6,-0.12024276911584383,-1.4351247492845183
1.61,-0.11841629667357785,-1.374228366712332
1.62,-0.12316512502346941,-1.404676557998425
1.63,-0.12754865888490777,-1.4351247492845183
1.64,-0.12620924576057937,-1.4655729405706113
1.65,-0.12620924576057937,-1.282883792854053
1.66,-0.12712248198171236,-1.374228366712332
1.67,-0.13321072345593232,-1.404676557998425
1.68,-0.13735072765840187,-1.374228366712332
1.69,-0.13674190351097987,-1.313331984140146
1.7,-0.1355242552161359,-1.404676557998425
1.71,-0.13613307936355787,-1.374228366712332
1.72,-0.13948161217437885,-1.404676557998425
1.73,-0.14142984944612924,-1.343780175426239
1.74,-0.13808131663530826,-1.404676557998425
1.75,-0.13716808041417528,-1.343780175426239
1.76,-0.14295190981468422,-1.374228366712332
1.77,-0.14739632609086478,-1.343780175426239
1.78,-0.14191690876406682,-1.404676557998425
1.79,-0.1420386735935512,-1.313331984140146
1.8,-0.14313455705891082,-1.4960211318567043
1.81,-0.1440477932800438,-1.282883792854053
1.82,-0.1452654415748878,-1.4655729405706113
1.83,-0.1441695581095282,-1.343780175426239
1.84,-0.1434389691326218,-1.4351247492845183
1.85,-0.14739632609086478,-1.374228366712332
1.86,-0.15409339171250672,-1.4655729405706113
1.87,-0.15074485890168574,-1.374228366712332
1.88,-0.13777690456159727,-1.4655729405706113
1.89,-0.13181042791686173,-1.343780175426239
1.9,-0.11945129772419524,-1.4655729405706113
1.91,-0.09552450873051087,-1.374228366712332
1.92,-0.08681832342237636,-1.4655729405706113
1.93,-0.07311978010538149,-1.404676557998425
1.94,-0.05369828980261988,-1.5264693231427973
1.95,-0.057960058834573835,-1.374228366712332
1.96,-0.07902537433537483,-1.4655729405706113
1.97,-0.1028303984995748,-1.374228366712332
1.98,-0.1340021948475809,-1.374228366712332
1.99,-0.1556154520810617,-1.4655729405706113
2.0,-0.16176457597002383,-1.4655729405706113
2.01,-0.16645252190517318,-1.404676557998425
2.02,-0.16724399329682177,-1.4351247492845183
2.03,-0.2070610925382202,-1.374228366712332
2.04,-0.22885699701592757,-1.4655729405706113
2.05,0.19378872612442072,-1.4351247492845183
2.06,1.5416036236872313,-1.4655729405706113
2.07,2.8799208645502588,-1.404676557998425
2.08,2.163091313375603,-1.374228366712332
2.09,0.17990753556319924,-1.404676557998425
2.1,-0.46234105755226235,-1.4960211318567043
2.11,-0.14021220115128524,-1.374228366712332
2.12,-0.10587451923668477,-1.4655729405706113
2.13,-0.16919223056857216,-1.374228366712332
2.14,-0.16219075287321924,-1.404676557998425
2.15,-0.14849220955622436,-1.374228366712332
2.16,-0.14130808461664482,-1.4960211318567043
2.17,-0.13534160797190928,-1.313331984140146
2.18,-0.12237365363182082,-1.4655729405706113
2.19,-0.10149098537524642,-1.343780175426239
2.2,-0.07951243365331243,-1.4960211318567043
2.21,-0.05114122838344751,-1.343780175426239
2.22,-0.01649913439513604,-1.4351247492845183
2.23,0.02563149660646595,-1.4351247492845183
2.24,0.08316537853784439,-1.404676557998425
2.25,0.15348456756508472,-1.374228366712332
2.26,0.24371230621302423,-1.4960211318567043
2.27,0.35719712729248393,-1.374228366712332
2.28,0.48462402134790733,-1.343780175426239
2.29,0.6016400224824145,-1.282883792854053
2.3,0.6899804062733459,-1.4351247492845183
2.31,0.7484275244258574,-1.343780175426239
2.32,0.7532981176052334,-1.4655729405706113
2.33,0.6709242104590375,-1.313331984140146
2.34,0.5041672764801534,-1.374228366712332
2.35,0.310500315185217,-1.343780175426239
2.36,0.13795955180582387,-1.4655729405706113
2.37,0.006697065621641935,-1.313331984140146
2.38,-0.07598125359826487,-1.343780175426239
2.39,-0.12024276911584383,-1.374228366712332
2.4,-0.14009043632180085,-1.4655729405706113
2.41,-0.15031868199849036,-1.374228366712332
2.42,-0.15744192452332767,-1.404676557998425
2.43,-0.1641998725597118,-1.343780175426239
2.44,-0.17028811403393174,-1.4351247492845183
2.45,-0.1750369423838233,-1.313331984140146
2.46,-0.17899429934206626,-1.4351247492845183
2.47,-0.17412370616269032,-1.343780175426239
2.48,-0.16706134605259518,-1.5264693231427973
2.49,-0.16085133974889085,-1.313331984140146
2.5,-0.15013603475426374,-1.4351247492845183
2.51,-0.14222132083777783,-1.374228366712332
2.52,-0.13869014078273026,-1.374228366712332
2.53,-0.13777690456159727,-1.404676557998425
2.54,-0.13899455285644124,-1.4655729405706113
2.55,-0.14039484839551183,-1.374228366712332
2.56,-0.14295190981468422,-1.4351247492845183
2.57,-0.15184074236704534,-1.4351247492845183
2.58,-0.15774633659703868,-1.404676557998425
2.59,-0.16005986835724226,-1.374228366712332
2.6,-0.16754840537053278,-1.4960211318567043
2.61,-0.17047076127815836,-1.25243560156796
2.62,-0.17363664684475272,-1.4655729405706113
2.63,-0.17728959172928468,-1.374228366712332
2.64,-0.18234283215288724,-1.4655729405706113
2.65,-0.1835604804477312,-1.343780175426239
2.66,-0.17820282795041767,-1.4351247492845183
2.67,-0.1777766510472223,-1.343780175426239
2.68,-0.17881165209783967,-1.4960211318567043
2.69,-0.1765590027523783,-1.343780175426239
2.7,-0.1738192940889793,-1.4960211318567043
2.71,-0.1759501786049563,-1.4351247492845183
2.72,-0.17698517965557367,-1.4960211318567043
2.73,-0.17412370616269032,-1.374228366712332
2.74,-0.17241899854990872,-1.4655729405706113
2.75,-0.17199282164671334,-1.374228366712332
2.76,-0.17059252610764275,-1.4351247492845183
2.77,-0.17010546678970515,-1.343780175426239
2.78,-0.17168840957300233,-1.4351247492845183
2.79,-0.16219075287321924,-1.4655729405706113
2.8,-0.1322974872347993,-1.4960211318567043
2.81,-0.10958834653595893,-1.4351247492845183
2.82,-0.09996892500669143,-1.404676557998425
2.83,-0.07780772604053085,-1.313331984140146
2.84,-0.0720238966400219,-1.4351247492845183
2.85,-0.0829827312936178,-1.404676557998425
2.86,-0.10404804679441879,-1.4960211318567043
2.87,-0.14100367254293383,-1.343780175426239
2.88,-0.16919223056857216,-1.4655729405706113
2.89,-0.17960312348948826,-1.343780175426239
2.9,-0.1835604804477312,-1.4655729405706113
2.91,-0.18185577283494964,-1.343780175426239
2.92,-0.20109461589348465,-1.4655729405706113
2.93,-0.25607143640569074,-1.404676557998425
2.94,-0.10057774915411342,-1.4351247492845183
2.95,0.8581376357913006,-1.343780175426239
2.96,2.417153630094801,-1.4351247492845183
2.97,2.6516726916817532,-1.404676557998425
2.98,0.8578332237175896,-1.4960211318567043
2.99,-0.4331783808907488,-1.404676557998425
3.0,-0.2588111450690897,-1.404676557998425
3.01,-0.07780772604053085,-1.282883792854053
3.02,-0.15074485890168574,-1.343780175426239
3.03,-0.1634084011680632,-1.374228366712332
3.04,-0.1447783822569502,-1.343780175426239
3.05,-0.1335151355296433,-1.343780175426239
3.06,-0.12633101059006377,-1.404676557998425
3.07,-0.1132412914204909,-1.313331984140146
3.08,-0.09814245256442544,-1.4351247492845183
3.09,-0.07920802157960143,-1.343780175426239
3.1,-0.054307113950041876,-1.4351247492845183
3.11,-0.022282963795644983,-1.282883792854053
3.12,0.016316487150909442,-1.4655729405706113
3.13,0.06514418377415337,-1.4655729405706113
3.14,0.12712248198171236,-1.404676557998425
3.15,0.20876580015100177,-1.404676557998425
3.16,0.3109873745031546,-1.4960211318567043
3.17,0.42830778771137284,-1.343780175426239
3.18,0.5490376161451542,-1.4351247492845183
3.19,0.6483368345896815,-1.343780175426239
3.2,0.7162207270272338,-1.4351247492845183
3.21,0.7402083984356604,-1.4351247492845183
3.22,0.6938159984021045,-1.374228366712332
3.23,0.5629188067063757,-1.313331984140146
3.24,0.38008891523555094,-1.4960211318567043
3.25,0.2050519728517276,-1.404676557998425
3.26,0.06502241894466897,-1.5264693231427973
3.27,-0.03385062259666287,-1.313331984140146
3.28,-0.09016685623319733,-1.4655729405706113
3.29,-0.11427629247110829,-1.343780175426239
3.3,-0.12651365783429036,-1.374228366712332
3.31,-0.1335151355296433,-1.343780175426239
3.32,-0.13826396387953485,-1.374228366712332
3.33,-0.14112543737241823,-1.313331984140146
3.34,-0.1432563218883952,-1.4351247492845183
3.35,-0.14569161847808318,-1.343780175426239
3.36,-0.14556985364859878,-1.404676557998425
3.37,-0.1441695581095282,-1.313331984140146
3.38,-0.14082102529870724,-1.4655729405706113
3.39,-0.13321072345593232,-1.282883792854053
3.4,-0.12815748303232977,-1.4351247492845183
3.41,-0.12712248198171236,-1.4351247492845183
3.42,-0.12681806990800137,-1.404676557998425
3.43,-0.12773130612913436,-1.374228366712332
3.44,-0.13016660271882233,-1.4351247492845183
3.45,-0.13181042791686173,-1.4655729405706113
3.46,-0.13260189930851032,-1.5569175144288903
3.47,-0.1347327838244873,-1.343780175426239
3.48,-0.13765513973211285,-1.4351247492845183
3.49,-0.14234308566726223,-1.313331984140146
3.5,-0.14830956231199777,-1.404676557998425
3.51,-0.1543978037862177,-1.5264693231427973
3.52,-0.1556154520810617,-1.4655729405706113
3.53,-0.15287574341766272,-1.374228366712332
3.54,-0.15062309407220134,-1.4351247492845183
3.55,-0.15184074236704534,-1.374228366712332
3.56,-0.1554936872515773,-1.4655729405706113
3.57,-0.15683310037590567,-1.343780175426239
3.58,-0.15732015969384328,-1.404676557998425
3.59,-0.16005986835724226,-1.404676557998425
3.6,-0.16158192872579724,-1.4960211318567043
3.61,-0.15902486730662485,-1.404676557998425
3.62,-0.15841604315920285,-1.4655729405706113
3.63,-0.16036428043095324,-1.313331984140146
3.64,-0.15945104420982026,-1.4655729405706113
3.65,-0.15945104420982026,-1.343780175426239
3.66,-0.1634084011680632,93.99356650016918
3.67,-0.16572193292826679,93.87177373502482
3.68,-0.16219075287321924,93.44346917760043
3.69,-0.16249516494693023,92.74113089860123
3.7,-0.1652348736103292,92.28440802930983
3.71,-0.1655392856840402,91.97789623702982
3.72,-0.1557980993252883,91.49072517645234
3.73,-0.12785307095861875,91.2166914548775
3.74,-0.11141481897822492,90.69704232359484
3.75,-0.10057774915411342,90.42300860202
3.76,-0.07872096226166383,89.87291127945126
3.77,-0.07780772604053085,89.96425585330954
3.78,-0.09948186568875383,89.90335947073736
3.79,-0.12438277331831339,89.59887755787642
3.8,-0.15932927938033586,89.04878023530767
3.81,-0.19044019331359976,89.20102119173815
3.82,-0.20322550040946163,88.65295374858847
3.83,-0.20383432455688363,88.74429832244675
3.84,-0.20200785211461764,88.65295374858847
3.85,-0.23025729255499816,88.34644195630847
3.86,-0.28322499338071166,87.88971908701707
3.87,-0.05004534491808792,87.92016727830317
3.88,1.0694604973614747,87.4614145295927
3.89,2.6493591599215494,87.52231091216488
3.9,2.6063761751135566,87.03513985158739
3.91,0.658869492340082,87.09603623415958
3.92,-0.48017960507172675,86.76110613001255
3.93,-0.24675642695013422,86.39369795516036
3.94,-0.11701600113450726,86.2414569987299
3.95,-0.19086637021679514,86.36324976387428
3.96,-0.19884196654802327,86.33280157258818
3.97,-0.17820282795041767,85.90652689458288
3.98,-0.15914663213610925,85.5391187197307
3.99,-0.14788338540880236,85.63046329358897
4.0,-0.1355242552161359,85.14329223301148
4.01,-0.11518952869224128,85.14329223301148
4.02,-0.09065391555113492,84.71498767558711
4.03,-0.06757948036384134,84.77588405815929
4.04,-0.038477686117070024,84.59319491044273
4.05,0.0014002955390705865,84.71498767558711
4.06,0.04712298901046234,84.71498767558711
4.07,0.11141481897822492,84.50185033658445
4.08,0.19865931930379668,84.38005757144008
4.09,0.30429030888151265,84.01467927600696
4.1,0.42617690319539586,83.92130482272961
4.11,0.5484287919977323,83.16010004057729
4.12,0.6482150697601972,83.06672558729993
4.13,0.7153074908061009,82.70134729186682
4.14,0.7363728063069018,83.06672558729993
4.15,0.684500988946548,83.06672558729993
4.16,0.5453237888458801,83.00582920472775
4.17,0.3576841866104215,85.93697508586897
4.18,0.17960312348948826,90.20784138359829
4.19,0.04030415855933601,97.10537164960789
4.2,-0.0518718173603539,105.80340496033514
4.21,-0.10678775545781777,113.98178913977972
4.22,-0.14009043632180085,113.82954818334926
4.23,-0.1556154520810617,121.09245674479199
4.24,-0.1651131087808448,125.27400834808209
4.25,-0.16858340642115016,126.12858758351177
4.26,-0.1655392856840402,124.57167006908288
4.27,-0.16633075707568878,121.4578350402251
4.28,-0.16693958122311078,117.79593256821765
4.29,-0.16054692767517983,114.8363683752094
4.3,-0.1550066279336397,108.64117638819901
4.31,-0.15031868199849036,105.9556459167656
4.32,-0.14508279433066118,103.48325278433485
4.33,-0.13929896493015226,102.05015791446941
4.34,-0.13704631558469088,101.10423410518145
4.35,-0.13534160797190928,100.40189582618224
4.36,-0.1340021948475809,100.31055125232396
4.37,-0.1362548441930423,100.40189582618224
4.38,-0.13795955180582387,99.94314307747176
4.39,-0.14069926046922285,100.03448765133004
4.4,-0.1447783822569502,100.00403946004396
4.41,-0.14770073816457577,99.17990841590037
4.42,-0.15257133134395173,98.72318554660897
4.43,-0.15774633659703868,97.62502078089055
4.44,-0.1643216373891962,96.83133792803305
4.45,-0.16967928988650977,96.49437794446696
4.46,-0.17120135025506475,95.8854141187451
4.47,-0.17107958542558035,95.97675869260338
4.48,-0.16937487781279875,95.51800594389292
4.49,-0.16706134605259518,95.5789023264651
4.5,-0.1652348736103292,95.51800594389292
4.51,-0.16249516494693023,95.64182858845636
4.52,-0.16219075287321924,95.1526276484598
4.53,-0.16846164159166577,95.21352403103198
4.54,-0.17120135025506475,95.1526276484598
4.55,-0.16937487781279875,95.18307583974588
4.56,-0.17138399749929134,95.1526276484598
4.57,-0.1744281182364013,95.1526276484598
4.58,-0.1745498830658857,95.0917312658876
4.59,-0.17077517335186934,95.18307583974588
4.6,-0.16645252190517318,95.1221794571737
4.61,-0.16633075707568878,92.80202728117341
4.62,-0.15945104420982026,92.68023451602905
4.63,-0.1350371958981983,92.40620079445421
4.64,-0.11549394076595228,91.97789623702982
4.65,-0.09936010085926944,91.15579507230531
4.66,-0.08164331816928941,90.72749051488094
4.67,-0.07841655018795284,90.33166402816173
4.68,-0.09034950347742392,89.99470404459564
4.69,-0.11092775966028733,89.99470404459564
4.7,-0.14818779748251337,89.56842936659034
4.71,-0.1835604804477312,89.17057300045205
4.72,-0.19147519436421714,88.74429832244675
4.73,-0.18922254501875577,88.65295374858847
4.74,-0.19287548990328773,88.28554557373629
4.75,-0.21193168571759616,87.92016727830317
4.76,-0.2676390952067086,87.49186272087879
4.77,-0.12225188880233641,87.12648442544567
4.78,0.8379855565116326,86.70020974744037
4.79,2.433652764489937,86.76110613001255
4.8,2.7555989736466877,86.63728348544912
4.81,1.00206366424186,86.45459433773256
4.82,-0.36517272362371206,85.96742327715506
4.83,-0.266238799667638,85.4782223371585
4.84,-0.09966451293298044,85.5391187197307
4.85,-0.17241899854990872,85.17374042429758
4.86,-0.1961022578846243,85.0214994678671
4.87,-0.18264724422659823,84.7454358668732
4.88,-0.1756457665312453,84.65409129301491
4.89,-0.16310398909435223,84.7454358668732
4.9,-0.1458742657223098,84.77588405815929
4.91,-0.12803571820284537,84.38005757144008
4.92,-0.10483951818606739,83.95175301401571
4.93,-0.07659007774568685,83.92130482272961
4.94,-0.04712298901046234,83.52547833601041
4.95,-0.013272366413799471,83.52547833601041
4.96,0.03476385881779586,83.46458195343821
4.97,0.0921759759196899,83.12965184929119
4.98,0.16858340642115016,83.12965184929119
4.99,0.27056145111433416,82.70134729186682
5.0,0.38575097980657547,82.64045090929463
5.01,0.5020363919641764,82.30552080514761
5.02,0.6062062035880795,82.21214635187026
5.03,0.6791433364492344,82.24462442257543
5.04,0.7128721942164129,82.27507261386151
5.05,0.679325983693461,82.27507261386151
5.06,0.5552476224488586,82.67089910058073
5.07,0.37430508583504196,84.3191611888679
5.08,0.19701549410575728,88.65295374858847
5.09,0.05570740948911246,95.97675869260338
5.1,-0.04194798375737539,105.43599678548294
5.11,-0.10088216122782442,114.74502380135112
5.12,-0.13181042791686173,122.25151789308259
5.13,-0.14983162268055275,126.58531045280317
5.14,-0.16158192872579724,126.18948396608396
5.15,-0.16876605366537675,124.26718815622195
5.16,-0.17077517335186934,121.00111217093371
5.17,-0.16907046573908777,117.91772533336201
5.18,-0.16907046573908777,114.65367922749284
5.19,-0.1673657581263062,111.99859694734553
5.2,-0.16036428043095324,109.49575562362868
5.21,-0.15713751244961668,107.08425887377011
5.22,-0.15671133554642128,105.07061849004984
5.23,-0.1554936872515773,103.91155734175922
5.24,-0.1550066279336397,102.78294438475471
5.25,-0.15196250719652973,102.05015791446941
5.26,-0.15092750614591233,101.10423410518145
5.27,-0.15153633029333433,100.79772231290144
5.28,-0.15214515444075632,100.24965486975177
5.29,-0.15713751244961668,99.97359126875786
5.3,-0.16249516494693023,99.0276674594699
5.31,-0.1649304615366182,98.41870363374804
5.32,-0.16754840537053278,97.92950269375147
5.33,-0.16998370196022075,97.16626803218008
5.34,-0.17059252610764275,96.37258517932258
5.35,-0.17107958542558035,95.64182858845636
5.36,-0.16785281744424377,95.1221794571737
5.37,-0.16584369775775118,94.7263529704545
5.38,-0.16724399329682177,94.26760022174402
5.39,-0.16827899434743918,93.9022219263109
5.4,-0.17077517335186934,93.9022219263109
5.41,-0.17077517335186934,93.9022219263109
5.42,-0.17229723372042433,93.9631183088831
5.43,-0.17881165209783967,94.3589447956023
5.44,-0.18343871561824682,93.84132554373872
5.45,-0.18264724422659823,93.9022219263109
5.46,-0.18112518385804324,93.84132554373872
5.47,-0.18185577283494964,93.87177373502482
5.48,-0.1861784242816458,93.9022219263109
5.49,-0.1947019623455537,92.8629236637456
5.5,-0.19701549410575728,92.25395983802373
5.51,-0.19378872612442072,92.34530441188201
5.52,-0.19238843058535013,91.58206975031062
5.53,-0.18234283215288724,91.6125179415967
5.54,-0.1550066279336397,90.72749051488094
5.55,-0.13960337700386324,90.78838689745312
5.56,-0.12724424681119675,90.39256041073392
5.57,-0.10830981582637275,89.56842936659034
5.58,-0.10666599062833336,89.50753298401814
5.59,-0.12407836124460239,89.53798117530424
5.6,-0.1543978037862177,89.56842936659034
5.61,-0.19805049515637468,89.47708479273206
5.62,-0.22124669517315265,89.14012480916595
5.63,-0.22094228309944167,89.23146938302423
5.64,-0.22599552352304422,89.14012480916595
5.65,-0.23421464951324114,88.80519470501893
5.66,-0.2745188080725771,88.71385013116065
5.67,-0.309891491037795,88.31599376502237
5.68,0.05004534491808792,87.82882270444489
5.69,1.3566428477004295,87.92016727830317
5.7,2.81934286188177,87.37006995573442
5.71,2.2763326047960937,87.03513985158739
5.72,0.22611728835252862,86.57638710287692
5.73,-0.5497682051220607,86.79155432129865
5.74,-0.21302756918295573,86.30235338130208
5.75,-0.1547022158599287,86.02831965972725
5.76,-0.22611728835252862,85.90652689458288
5.77,-0.22325581485964524,85.60001510230288
5.78,-0.20858315290677518,85.14329223301148
5.79,-0.19762431825317928,85.17374042429758
5.8,-0.18800489672391177,84.71498767558711
5.81,-0.16846164159166577,84.41050576272617
5.82,-0.14678750194344278,84.34960938015399
5.83,-0.12651365783429036,83.95175301401571
5.84,-0.09716833392855026,83.73861567501305
5.85,-0.05631623363653446,84.01467927600696
5.86,-0.010654422579884897,83.95175301401571
5.87,0.04012151131510941,84.01467927600696
5.88,0.09905568878555844,83.55592652729649
5.89,0.1853869528899972,83.12965184929119
5.9,0.2999676574348165,83.06672558729993
5.91,0.42374160660570787,83.19054823186337
5.92,0.5493420282188652,82.54910633543635
5.93,0.6547294881376124,82.3359689964337
5.94,0.7162207270272338,82.24462442257543
5.95,0.7246225002616574,82.30552080514761
5.96,0.6525986036216355,82.18169816058416
5.97,0.49241697043490884,82.762243674439
5.98,0.2968017718682221,83.95175301401571
5.99,0.11932953289471085,87.49186272087879
6.0,-0.015585898174003049,87.33962176444832
6.01,-0.10435245886812979,93.26078002988388
6.02,-0.15914663213610925,102.41553620990251
6.03,-0.19257107782957672,112.33352705149255
6.04,-0.20797432875935318,120.08563655293185
6.05,-0.2180199271918161,125.33490473065429
6.06,-0.2250822873019112,126.12858758351177
6.07,-0.22295140278593423,124.20629177364977
6.08,-0.22021169412253527,121.39693865765291
6.09,-0.22002904687830865,121.52076130221636
6.1,-0.2164978668232611,111.35715505091851
6.11,-0.21120109674068976,108.76296915334338
6.12,-0.20097285106400026,105.9556459167656
6.13,-0.19421490302761613,104.0333501069036
6.14,-0.19025754606937315,101.92836514932503
6.15,-0.18782224947968518,100.43234401746832
6.16,-0.18660460118484118,99.54731659075256
6.17,-0.18709166050277878,99.17990841590037
6.18,-0.19348431405070973,98.6318409727507
6.19,-0.19835490723008567,98.32735905988976
6.2,-0.20340814765368823,97.92950269375147
6.21,-0.20919197705419718,97.19671622346617
6.22,-0.21375815815986213,96.73999335417477
6.23,-0.22155110724686367,96.52685601517213
6.24,-0.22416905108077823,96.03765507517556
6.25,-0.22264699071222324,95.70272497102854
6.26,-0.21771551511810508,95.18307583974588
6.27,-0.21558463060212812,94.69387489974933
6.28,-0.21881139858346468,93.87177373502482
6.29,-0.22173375449109026,93.932670117597
6.3,-0.2250822873019112,93.77839928174747
6.31,-0.22611728835252862,93.932670117597
6.32,-0.2269087597441772,93.80884747303355
6.33,-0.23177935292355314,93.932670117597
6.34,-0.23177935292355314,93.84132554373872
6.35,-0.2250822873019112,94.29804841303012
6.36,-0.22002904687830865,94.26760022174402
6.37,-0.21850698650975367,94.45028936946058
6.38,-0.21960286997511327,94.20670383917184
6.39,-0.2158890426758391,94.26760022174402
6.4,-0.21394080540408872,92.77157908988733
6.41,-0.1945193151013271,92.37575260316811
6.42,-0.1649304615366182,91.88655166317155
6.43,-0.15336280273560032,91.6429661328828
6.44,-0.1362548441930423,91.09286881031406
6.45,-0.12572218644264177,90.8797314713114
6.46,-0.13716808041417528,90.78838689745312
6.47,-0.15872045523291387,90.42300860202
6.48,-0.1951890216634913,89.90335947073736
6.49,-0.2256911114493332,89.59887755787642
6.5,-0.2363455340292181,89.01833204402159
6.51,-0.24413848311621963,88.77474651373284
6.52,-0.2498005476872442,88.65295374858847
6.53,-0.2621596778799107,88.37689014759457
6.54,-0.3198153246407735,88.25509738245019
6.55,-0.23135317602035776,87.95061546958925
6.56,0.5934208964922176,87.4614145295927
6.57,2.1746589721766205,87.06558804287349
6.58,2.7398913106432,86.63728348544912
6.59,1.103676414446591,86.33280157258818
6.6,-0.4229501352140593,86.2110088074438
6.61,-0.3791756790144179,86.271905190016
6.62,-0.15092750614591233,85.90652689458288
6.63,-0.2186287513392381,85.93697508586897
6.64,-0.2482784873186892,85.84563051201069
6.65,-0.23117052877613117,85.99787146844116
6.66,-0.2186287513392381,85.87607870329678
6.67,-0.20383432455688363,85.60001510230288
6.68,-0.18234283215288724,85.17374042429758
6.69,-0.16328663633857882,84.7454358668732
6.7,-0.14709191401715377,84.34960938015399
6.71,-0.1229824777792428,84.2887129975818
6.72,-0.08882744310886893,84.38005757144008
6.73,-0.04870593179375953,83.92130482272961
6.74,-0.0006088241474219941,84.22781661500962
6.75,0.05783829400508944,84.38005757144008
6.76,0.1336369003591277,83.92130482272961
6.77,0.23025729255499816,83.55592652729649
6.78,0.34636005746837245,83.52547833601041
6.79,0.4680031221232869,83.19054823186337
6.8,0.5728426403093543,83.06672558729993
6.81,0.6471191862948376,83.12965184929119
6.82,0.6840748120433525,82.61000271800854
6.83,0.6546077233081281,82.67089910058073
6.84,0.5320514224320806,82.57955452672245
6.85,0.3524482989425924,84.2887129975818
6.86,0.17107958542558035,87.03513985158739
6.87,0.024231201067395364,92.74113089860123
6.88,-0.07829478535846844,101.07378591389535
6.89,-0.14142984944612924,111.14401771191585
6.9,-0.17759400380299567,118.95702359592732
6.91,-0.19500637441926472,118.98747178721342
6.92,-0.2070610925382202,124.63256645165507
6.93,-0.21771551511810508,125.82207579123177
6.94,-0.21972463480459767,124.23673996493586
6.95,-0.21972463480459767,122.03838055407994
6.96,-0.2178981623623317,118.16334074306984
6.97,-0.2152802185284171,111.93770056477335
6.98,-0.2158890426758391,109.13037732819556
6.99,-0.2154628657726437,106.38395047418997
7.0,-0.21193168571759616,106.19923144705434
7.01,-0.20219049935884423,104.4596247849089
7.02,-0.1959196106403977,102.72001812276345
7.03,-0.19774608308266367,101.62185335704503
7.04,-0.19421490302761613,100.70637773904316
7.05,-0.19287548990328773,100.00403946004396
7.06,-0.1971372589352417,98.75363373789506
7.07,-0.20188608728513324,98.29488098918459
7.08,-0.20724373978244678,97.99039907632367
7.09,-0.21284492193872914,97.19671622346617
7.1,-0.2158890426758391,96.73999335417477
7.11,-0.21942022273088668,96.06810326646166
7.12,-0.2244734631544892,95.51800594389292
7.13,-0.22855258494221659,95.18307583974588
7.14,-0.22295140278593423,94.69387489974933
7.15,-0.21254050986501813,94.23715203045793
7.16,-0.21454962955151072,93.80884747303355
7.17,-0.22203816656480124,93.932670117597
7.18,-0.22550846420510662,93.87177373502482
7.19,-0.22855258494221659,94.02401469145528
7.2,-0.2290396442601542,93.87177373502482
7.21,-0.22611728835252862,93.84132554373872
7.22,-0.22459522798397363,94.23715203045793
7.23,-0.2278219959653102,94.32849660431621
7.24,-0.23226641224149075,94.32849660431621
7.25,-0.23238817707097514,94.3589447956023
7.26,-0.22873523218644318,94.3589447956023
7.27,-0.2252040521313956,92.74113089860123
7.28,-0.21972463480459767,92.37575260316811
7.29,-0.20249491143255524,91.6125179415967
7.3,-0.18709166050277878,91.03197242774188
7.31,-0.18021194763691026,90.72749051488094
7.32,-0.15853780798868727,90.33166402816173
7.33,-0.14374338120633282,90.42300860202
7.34,-0.15591986415477269,89.99470404459564
7.35,-0.17972488831897265,90.05560042716782
7.36,-0.21558463060212812,89.87291127945126
7.37,-0.24961790044301757,89.59887755787642
7.38,-0.2568020253825971,89.10967661787987
7.39,-0.2546711408666201,89.14012480916595
7.4,-0.25327084532754957,88.74429832244675
7.41,-0.26654321174134904,88.31599376502237
7.42,-0.3218244443272661,87.85927089573097
7.43,-0.19147519436421714,87.4614145295927
7.44,0.7264489727039234,87.4614145295927
7.45,2.3384326678331373,87.0046916603013
7.46,2.7384910151041293,87.0046916603013
7.47,0.9455647833610991,86.76110613001255
7.48,-0.5021581567936607,86.70020974744037
7.49,-0.3601194832001095,86.39369795516036
7.5,-0.13948161217437885,86.36324976387428
7.51,-0.2049302080222432,86.33280157258818
7.52,-0.2158890426758391,85.87607870329678
7.53,-0.19238843058535013,85.90652689458288
7.54,-0.17808106312093328,85.5086705284446
7.55,-0.1648086967071338,85.4782223371585
7.56,-0.15062309407220134,85.44777414587242
7.57,-0.1343066069212919,85.23463680686976
7.58,-0.11062334758657633,85.14329223301148
7.59,-0.08042566987444542,84.71498767558711
7.6,-0.04304386722273498,84.77588405815929
7.61,0.0006088241474219941,84.71498767558711
7.62,0.05083681630973651,84.7454358668732
7.63,0.11640717698708528,84.80633224944539
7.64,0.20066843899028924,84.68453948430101
7.65,0.30331619024563744,84.7454358668732
7.66,0.41887101342633193,84.68453948430101
7.67,0.5375917221736208,84.83678044073147
7.68,0.639935061355258,84.2887129975818
7.69,0.7115327810920845,84.41050576272617
7.7,0.742826342269575,83.95175301401571
7.71,0.7060533637652866,83.95175301401571
7.72,0.5799658828341916,83.92130482272961
7.73,0.393848340967288,85.60001510230288
7.74,0.20401697180111023,88.9878838527355
7.75,0.04742740108417334,95.97675869260338
7.76,-0.05674241053972985,104.64434381204453
7.77,-0.11445893971533488,113.89044456592144
7.78,-0.14709191401715377,121.09245674479199
7.79,-0.1634084011680632,120.94021578836151
7.8,-0.17168840957300233,121.03156036221979
7.81,-0.18124694868752764,125.36535292194037
7.82,-0.1843519518393798,126.18948396608396
7.83,-0.18252547939711383,124.72391102551335
7.84,-0.18295165630030924,121.4578350402251
7.85,-0.18155136076123865,109.28261828462604
7.86,-0.17929871141577727,106.29057602091262
7.87,-0.17150576232877573,104.4291765936228
7.88,-0.16389546048600082,102.32419163604425
7.89,-0.16267781219115682,101.16513048775363
7.9,-0.1651131087808448,100.18875848717958
7.91,-0.1640172253154852,100.0974139133213
7.92,-0.1635910484122898,99.48642020818038
7.93,-0.1667569339788842,99.17990841590037
7.94,-0.17302782269733072,98.78408192918116
7.95,-0.18374312769195783,98.51004820760632
7.96,-0.19299725473277213,97.92950269375147
7.97,-0.19488460958978032,97.65546897217664
7.98,-0.19744167100895268,96.6486487803165
7.99,-0.20310373557997724,96.83133792803305
8.0,-0.20383432455688363,96.3421369880365
8.01,-0.2044431487043056,95.48755775260682
8.02,-0.20907021222471278,95.1221794571737
8.03,-0.21241874503553373,95.1526276484598
8.04,-0.21284492193872914,95.1526276484598
8.05,-0.21333198125666672,94.69387489974933
8.06,-0.2171066909706831,94.66342670846323
8.07,-0.22051610619624626,94.78724935302668
8.08,-0.22112493034366826,94.66342670846323
8.09,-0.22021169412253527,95.24397222231808
8.1,-0.22002904687830865,95.1526276484598
8.11,-0.22002904687830865,95.27442041360416
8.12,-0.22082051826995727,95.0917312658876
8.13,-0.21972463480459767,95.1526276484598
8.14,-0.2152802185284171,95.1526276484598
8.15,-0.20846138807729078,93.1694354560256
8.16,-0.18843107362710718,92.71068270731513
8.17,-0.16693958122311078,92.03879261960202
8.18,-0.1554936872515773,91.6125179415967
8.19,-0.14009043632180085,91.24713964616359
8.2,-0.13107983893995534,91.12331700160016
8.21,-0.1434389691326218,90.84928328002532
8.22,-0.1666351691493998,90.60569774973656
8.23,-0.19945079069544527,90.78838689745312
8.24,-0.23269258914468616,90.30121583687564
8.25,-0.2464520148764232,90.4839049845922
8.26,-0.2476696631712672,89.99470404459564
8.27,-0.2482784873186892,89.62932574916252
8.28,-0.2600287933639337,88.65295374858847
8.29,-0.3128138469454206,88.37689014759457
8.3,-0.1973199061794683,87.79837451315879
8.31,0.684500988946548,87.88971908701707
8.32,2.298432921347512,87.7679263218727
8.33,2.802113138509728,87.4309663383066
8.34,1.0867511031482595,87.03513985158739
8.35,-0.43530926540672576,87.09603623415958
8.36,-0.36730360813968904,87.06558804287349
8.37,-0.14313455705891082,87.06558804287349
8.38,-0.20980080120161917,87.06558804287349
8.39,-0.23591935712602272,86.70020974744037
8.4,-0.22429081591026262,86.6677316767352
8.41,-0.2160716899200657,86.39369795516036
8.42,-0.20383432455688363,85.90652689458288
8.43,-0.1847781287425752,85.93697508586897
8.44,-0.16645252190517318,85.4782223371585
8.45,-0.1452654415748878,85.17374042429758
8.46,-0.12712248198171236,84.62364310172883
8.47,-0.09856862946762085,84.38005757144008
8.48,-0.05844711815251143,84.2887129975818
8.49,-0.016012075077198446,84.3191611888679
8.5,0.04651416486304035,84.34960938015399
8.51,0.1322974872347993,84.38005757144008
8.52,0.2356149450523117,84.2887129975818
8.53,0.3593280118084609,83.95175301401571
8.54,0.48705931793759527,83.89085663144353
8.55,0.5885503033128417,83.98220120530179
8.56,0.65826066819266,83.82996024887133
8.57,0.6933289390841669,83.58637471858259
8.58,0.657347431971527,83.89085663144353
8.59,0.5252325919809543,83.89085663144353
8.6,0.334305339349417,83.89085663144353
8.61,0.14556985364859878,83.89085663144353
8.62,-0.0036529448845319646,83.82996024887133
8.63,-0.11427629247110829,84.34960938015399
8.64,-0.18282989147082482,87.37006995573442
8.65,-0.21254050986501813,93.80884747303355
8.66,-0.22459522798397363,102.32419163604425
8.67,-0.23421464951324114,102.38508801861643
8.68,-0.24371230621302423,102.32419163604425
8.69,-0.24992231251672858,118.65051180364732
8.7,-0.2558887891614641,115.44736208035033
8.71,-0.26246408995362164,112.70093522634474
8.72,-0.2621596778799107,109.8915821103479
8.73,-0.2586284978248631,107.63435619633887
8.74,-0.2546711408666201,105.49892304747421
8.75,-0.2476696631712672,104.0333501069036
8.76,-0.24352965896879764,102.65912174019127
8.77,-0.23451906158695213,102.01970972318331
8.78,-0.22356022693335623,101.16513048775363
8.79,-0.22307316761541865,100.73682593032926
8.8,-0.2279437607947946,100.34099944361004
8.81,-0.23470170883117872,99.91269488618568
8.82,-0.24170318652653167,99.54731659075256
8.83,-0.24432113036044623,99.08856384204209
8.84,-0.24961790044301757,98.72318554660897
8.85,-0.25941996921651167,97.99039907632367
8.86,-0.2688567435015526,97.56412439831837
8.87,-0.27220527631237357,96.89223431060525
8.88,-0.27190086423866255,96.80088973674697
8.89,-0.27342292460721757,96.49437794446696
8.9,-0.2779891057128825,96.49437794446696
8.91,-0.2778673408833981,96.52685601517213
8.92,-0.2785979298603045,96.25079241417822
8.93,-0.28200734508586767,96.49437794446696
8.94,-0.27756292880968714,96.37258517932258
8.95,-0.27390998392515514,96.37258517932258
8.96,-0.27421439599886616,96.40303337060868
8.97,-0.27269233563031114,96.40303337060868
8.98,-0.27068321594381856,96.73999335417477
8.99,-0.26532556344650504,96.43348156189478
9.0,-0.2547929056961045,96.3421369880365
9.01,-0.23025729255499816,96.3421369880365
9.02,-0.20383432455688363,94.17625564788574
9.03,-0.19500637441926472,93.9631183088831
9.04,-0.18021194763691026,93.50436556017263
9.05,-0.1655392856840402,93.1694354560256
9.06,-0.1762545906786673,92.34530441188201
9.07,-0.19914637862173426,92.00834442831592
9.08,-0.2362237691997337,91.94744804574374
9.09,-0.2745188080725771,91.58206975031062
9.1,-0.28760852724215,91.06242061902796
9.11,-0.2856602899703996,90.81883508873922
9.12,-0.28078969679102367,90.36211221944782
9.13,-0.29296617973946354,89.96425585330954
9.14,-0.34879535405806045,89.47708479273206
9.15,-0.25174878495899455,89.04878023530767
9.16,0.5644408670749307,89.01833204402159
9.17,2.1058618435179355,89.14012480916595
9.18,2.632738260696929,88.62250555730238
9.19,0.9964015996708355,88.34644195630847
9.2,-0.5069069851435523,87.88971908701707
9.21,-0.42952543600621684,87.4614145295927
9.22,-0.1750369423838233,87.37006995573442
9.23,-0.2372587702503511,87.06558804287349
9.24,-0.26410791515166104,86.73065793872647
9.25,-0.2484002521481736,86.76110613001255
9.26,-0.23421464951324114,86.33280157258818
9.27,-0.2164978668232611,86.36324976387428
9.28,-0.20292108833575062,86.36324976387428
9.29,-0.18587401220793479,85.90652689458288
9.3,-0.16024251560146885,86.33280157258818
9.31,-0.1335151355296433,86.36324976387428
9.32,-0.09795980532019885,85.93697508586897
9.33,-0.053393877728908884,85.93697508586897
9.34,-0.006088241474219941,85.56956691101678
9.35,0.05522035017117487,85.20418861558366
9.36,0.13595043211933128,84.71498767558711
9.37,0.23591935712602272,84.34960938015399
9.38,0.352022122039397,84.3191611888679
9.39,0.4708645956161702,84.3191611888679
9.4,0.5722338161619323,83.95175301401571
9.41,0.6469974214653531,83.98220120530179
9.42,0.678412747472328,83.98220120530179
9.43,0.638717413060414,84.41050576272617
9.44,0.5137866980094208,85.14329223301148
9.45,0.3354012228147765,88.31599376502237
9.46,0.15993810352775786,94.3589447956023
9.47,0.01662089922462044,102.72001812276345
9.48,-0.08468743890639938,111.47894781606288
9.49,-0.14556985364859878,111.60074058120725
9.5,-0.17808106312093328,111.53984419863507
9.51,-0.1939104909539051,118.92657540464123
9.52,-0.20785256392986878,124.9066001732299
9.53,-0.2192984579014023,126.06769120093959
9.54,-0.2256911114493332,124.937048364516
9.55,-0.22934405633386518,122.43623692021822
9.56,-0.22995288048128718,118.62006361236124
9.57,-0.2284308201127322,115.93453314092783
9.58,-0.22295140278593423,113.12720990435005
9.59,-0.21375815815986213,110.38078305034446
9.6,-0.20937462429842377,107.87794172662761
9.61,-0.20219049935884423,107.96928630048589
9.62,-0.19269284265906114,105.9251977254795
9.63,-0.19269284265906114,104.0029019156175
9.64,-0.19147519436421714,102.78294438475471
9.65,-0.1867872484290678,101.56095697447284
9.66,-0.18983136916617777,99.94314307747176
9.67,-0.19957255552492967,99.57776478203864
9.68,-0.20371255972739924,98.72318554660897
9.69,-0.20523462009595422,98.08174365018195
9.7,-0.20785256392986878,97.10537164960789
9.71,-0.21132286157017416,96.83133792803305
9.72,-0.21363639333037773,96.37258517932258
9.73,-0.21436698230728413,96.00720688388947
9.74,-0.21241874503553373,95.6093505177512
9.75,-0.21132286157017416,95.18307583974588
9.76,-0.21132286157017416,95.1221794571737
9.77,-0.21345374608615114,95.21352403103198
9.78,-0.21576727784635472,95.0917312658876
9.79,-0.2154628657726437,95.24397222231808
9.8,-0.21558463060212812,94.69387489974933
9.81,-0.21820257443604268,94.81769754431278
9.82,-0.2172893382149097,94.69387489974933
9.83,-0.2178981623623317,94.78724935302668
9.84,-0.22203816656480124,94.75680116174058
9.85,-0.22398640383655163,94.7263529704545
9.86,-0.22215993139428564,94.69387489974933
9.87,-0.21911581065717567,94.78724935302668
9.88,-0.21394080540408872,93.87177373502482
9.89,-0.1961022578846243,93.26078002988388
9.9,-0.1744281182364013,92.64978632474295
9.91,-0.16188634079950823,92.46709717702639
9.92,-0.14313455705891082,91.94744804574374
9.93,-0.12803571820284537,91.58206975031062
9.94,-0.12998395547459574,91.52117336773843
9.95,-0.15062309407220134,91.6125179415967
9.96,-0.18648283635535678,91.2166914548775
9.97,-0.22855258494221659,90.9101796625975
9.98,-0.2485828993924002,90.30121583687564
9.99,-0.2507137839083772,89.93380766202345
