time_s,ECG,NIBP
0.0,-0.17149996404252468,75.43796411577257
0.01,-0.1916618783151042,74.82825334731837
0.02,-0.1986505173114278,75.13310873154548
0.03,-0.19778466823223725,74.3697208636653
0.04,-0.20291791634458112,74.33973508816754
0.05,-0.2096591698897074,74.09485125493593
0.06,-0.20631946629854392,73.88245201182689
0.07,-0.20143360363739735,73.78999587070884
0.08,-0.22097705428198364,73.54636144478962
0.09,-0.19209480285469946,73.36269856986591
0.1,0.25802302559877854,73.48514048648173
0.11,1.619137778086295,72.8142087597196
0.12,3.2377807852701954,72.78297357690946
0.13,2.857487500417154,72.569324926488
0.14,0.838141908656435,72.3256905005688
0.15,-0.10056218591170037,72.23448376676315
0.16,0.017564367035007935,72.05082089183944
0.17,0.010080957136289766,71.74596550761233
0.18,-0.09660401869254365,71.56230263268861
0.19,-0.1254244237570285,71.34865398226717
0.2,-0.12053856109588193,71.1962262901536
0.21,-0.11398284663915362,71.0125634152299
0.22,-0.10786005672202056,71.22621206565135
0.23,-0.10056218591170037,71.04379859804006
0.24,-0.08516244157466876,70.7689289893107
0.25,-0.07205101266121214,70.12798303804632
0.26,-0.053991874723809605,70.43283842227343
0.27,-0.03481950225601926,70.18920399635422
0.28,-0.017069596132613347,70.40285264677568
0.29,-0.00030923181399661857,70.15921822085647
0.3,0.02078037790057277,70.43283842227343
0.31,0.048363855709071146,70.28041073015989
0.32,0.08207012343470257,70.00554112143053
0.33,0.12270318379385826,69.30462361917066
0.34,0.1695208804329463,69.60947900339777
0.35,0.2321093995858619,69.3958303529763
0.36,0.30916996763381926,69.60947900339777
0.37,0.4065161426799548,69.30462361917066
0.38,0.5216740702122956,72.11204185014734
0.39,0.638872927717014,71.77595128311007
0.4,0.7524228498165724,71.95961415803379
0.41,0.8469859385367383,76.90351889322503
0.42,0.8885466943378839,84.80726955150651
0.43,0.842718539503585,93.47440807766816
0.44,0.7035642232051066,103.54463101566195
0.45,0.5082534094848423,131.46888444794
0.46,0.3086751967314247,135.1308972806025
0.47,0.13383552909773652,135.61941553975333
0.48,0.009462493508296529,135.2520897899059
0.49,-0.07112331721922227,134.09263980399297
0.5,-0.12115702472387517,132.59709925104278
0.51,-0.14861680980677489,132.38345060062133
0.52,-0.16568640593938824,130.24821350371917
0.53,-0.17428305036849423,127.10470470570523
0.54,-0.17242765948451452,127.56198778204589
0.55,-0.17700429033166448,127.16592566401313
0.56,-0.17712798305726313,127.56198778204589
0.57,-0.17681875124326651,127.22714662232103
0.58,-0.17440674309409288,124.75456955106921
0.59,-0.17199473494491926,122.00837227840043
0.6,-0.17316981583810642,120.32916885052653
0.61,-0.175767363075678,118.40758040404583
0.62,-0.17700429033166448,117.4305438857442
0.63,-0.18250861662080428,117.94904792039276
0.64,-0.19469235009227107,118.37634522123568
0.65,-0.20112437182340073,118.07148983700857
0.66,-0.2096591698897074,118.19393175362437
0.67,-0.21974012702599718,117.70541349447356
0.68,-0.23087247232987546,117.12568850151709
0.69,-0.23742818678660377,114.80553912237882
0.7,-0.238046650414597,113.52364721985008
0.71,-0.24262328126174695,111.66203032436488
0.72,-0.24917899571847527,110.83867090548921
0.73,-0.24992115207206714,108.977054010004
0.74,-0.25301347021203335,109.22068843592321
0.75,-0.2575901010591833,108.8546120933882
0.76,-0.2582085646871765,109.22068843592321
0.77,-0.25802302559877854,108.09247363282043
0.78,-0.25895072104076844,108.36609383423739
0.79,-0.25956918466876167,108.12245940831818
0.8,-0.2560439419892002,108.7933911350803
0.81,-0.2584559501383738,108.57974248465884
0.82,-0.2541885511052205,108.7933911350803
0.83,-0.2541885511052205,108.48853575085319
0.84,-0.2541885511052205,108.8546120933882
0.85,-0.25635317380319683,108.48853575085319
0.86,-0.25542547836120694,110.4725945629542
0.87,-0.2528279311236354,109.37436553534917
0.88,-0.2544977829192171,108.7933911350803
0.89,-0.2556110174496049,107.29909998944251
0.9,-0.2541885511052205,106.35204924663863
0.91,-0.24324174488974018,104.88774387649859
0.92,-0.22307983061716066,104.46044657565567
0.93,-0.20922624535011214,103.08734793932129
0.94,-0.17681875124326651,102.44640198805692
0.95,-0.1379173890424919,101.28695200214398
0.96,-0.14861680980677489,100.46234317595591
0.97,-0.18417846841638605,99.33287896554071
0.98,-0.21318441256926887,98.99803780581587
0.99,-0.23847957495419225,97.86857359540068
1.0,-0.2548070147332137,97.62493916948148
1.01,-0.2601876482967549,97.01397899371486
1.02,-0.26062057283635015,96.7391093849855
1.03,-0.2627851955343265,96.31181208414259
1.04,-0.26154826827834,96.06817765822338
1.05,-0.2604968801107515,95.79330804949402
1.06,-0.25301347021203335,95.64088035738047
1.07,-0.2710107617866365,94.51141614696529
1.08,-0.2541885511052205,94.35898845485173
1.09,0.15214205248633636,94.11535402893253
1.1,1.453698757598104,94.08411884612237
1.11,3.0937406063105706,93.29074520274445
1.12,2.8184624454907805,93.22952424443655
1.13,0.8198353852678352,92.58857829317218
1.14,-0.15059589341635327,92.40616482556088
1.15,-0.02047114608657615,91.79520464979426
1.16,-0.00531878720074184,92.07007425852362
1.17,-0.10575728038684357,91.3991425317615
1.18,-0.13810292813088987,91.21547965683779
1.19,-0.12635211919901837,90.94061004810843
1.2,-0.11899240202589884,90.81941753880503
1.21,-0.10439666040525844,90.2084573630384
1.22,-0.0883784524402336,90.02604389542711
1.23,-0.07384455718239252,89.26265602754692
1.24,-0.056589421961381205,89.32387698585484
1.25,-0.038159205847182735,88.469282384169
1.26,-0.023068693324147748,88.4080614258611
1.27,0.0007421563535918846,87.67590874079109
1.28,0.023068693324147748,87.52348104867754
1.29,0.05324971837021772,86.851299914603
1.3,0.08590459792826065,86.79132836360752
1.31,0.12468226740343662,85.78430606980814
1.32,0.17119073222852804,84.83725532700426
1.33,0.23223309231146055,84.47117898446925
1.34,0.3141795230205645,83.98266072531842
1.35,0.41443247711826825,83.76901207489696
1.36,0.535713194567742,84.01389590812857
1.37,0.6655905564463218,84.19630937573989
1.38,0.7960245355900956,84.40995802616133
1.39,0.9108113849456404,84.19630937573989
1.4,0.9703075859585898,85.90549857911154
1.41,0.9303548355902267,90.60576888838357
1.42,0.7847684975606187,97.31883437794197
1.43,0.5720788558937444,104.61287426776923
1.44,0.3506688770721655,112.63906684266651
1.45,0.16265593416222138,119.62825134826666
1.46,0.022759461510151128,125.51795741894938
1.47,-0.07081408540522566,132.7195411676586
1.48,-0.1280219709946001,134.2763026789167
1.49,-0.15733714696147955,134.42873037103024
1.5,-0.17428305036849423,133.91022633638167
1.51,-0.18343631206279415,132.38345060062133
1.52,-0.19302249829668933,131.68253309836146
1.53,-0.2023612990793872,130.36940601302257
1.54,-0.20434038268896557,130.64427562175192
1.55,-0.2052062317681561,129.57603236964465
1.56,-0.20291791634458112,128.75267295076898
1.57,-0.19333173011068594,128.02052026569896
1.58,-0.1877037110959475,127.56198778204589
1.59,-0.18003476210883135,126.82983509697587
1.6,-0.17657136579206922,126.98226278908942
1.61,-0.17075780768893278,126.82983509697587
1.62,-0.1655627132137896,126.73862836317022
1.63,-0.1679747213629632,126.40253779613296
1.64,-0.173664586740501,126.55496548824651
1.65,-0.1783649103132496,126.0064756781002
1.66,-0.18399292932798805,125.48672223613923
1.67,-0.19209480285469946,124.05240264149694
1.68,-0.2020520672653906,122.34321343812529
1.69,-0.21268964166687426,119.56703038995876
1.7,-0.2148542643648506,118.01026887870067
1.71,-0.2203585906539904,115.72135468237255
1.72,-0.22691430511071872,113.950944520693
1.73,-0.2262958414827255,112.3954324167473
1.74,-0.2278420005527086,111.57082359055923
1.75,-0.2287078496318991,111.32718916464002
1.76,-0.23223309231146055,111.57082359055923
1.77,-0.2340884831954403,111.26596820633212
1.78,-0.2354491031770254,111.47961685675358
1.79,-0.2321093995858619,111.60205877336938
1.8,-0.23297524866505245,111.93689993309424
1.81,-0.2339029441070423,111.72325128267278
1.82,-0.23347001956744703,112.63906684266651
1.83,-0.2328515559394538,112.42541819224505
1.84,-0.23421217592103893,111.99812089140214
1.85,-0.2361912595306173,111.38841012294793
1.86,-0.23575833499102203,110.86865668098696
1.87,-0.23730449406100512,109.74044187788418
1.88,-0.2309961650554741,109.22068843592321
1.89,-0.2321093995858619,108.15369459112833
1.9,-0.23328448047904907,108.36609383423739
1.91,-0.23668603043301187,106.84056750578944
1.92,-0.23575833499102203,105.98597290410362
1.93,-0.2354491031770254,104.55165330946133
1.94,-0.2354491031770254,103.60585197396985
1.95,-0.23130539686947071,102.20276756213771
1.96,-0.23513987136302877,101.22573104383608
1.97,-0.23668603043301187,99.76017626638364
1.98,-0.23786111132619903,99.24167223173507
1.99,-0.23742818678660377,98.20466416243794
2.0,-0.23377925138144365,97.62493916948148
2.01,-0.23483063954903216,97.04521417652501
2.02,-0.2340884831954403,96.46423977625614
2.03,-0.2325423241254572,95.73208709118612
2.04,-0.23699526224700848,96.06817765822338
2.05,-0.23347001956744703,95.09114113992175
2.06,-0.2321093995858619,95.24356883203531
2.07,-0.23266601685105584,94.20656076273818
2.08,-0.23241863139985855,94.02289788781447
2.09,-0.23056324051587881,93.29074520274445
2.1,-0.2258010705803309,93.22952424443655
2.11,-0.22505891422673902,92.13129521683152
2.12,-0.22703799783631737,92.43615060105863
2.13,-0.22598660966872888,91.36790734895133
2.14,-0.2244404505987458,91.70399791598861
2.15,-0.22382198697075253,90.51331274726552
2.16,-0.2262958414827255,90.42210601345987
2.17,-0.22184290336117418,89.87361620331355
2.18,-0.22048228337958906,89.68995332838985
2.19,-0.22066782246798702,88.49926815966676
2.2,-0.22171921063557554,88.3468404675532
2.21,-0.22326536970555863,87.73712969909899
2.22,-0.22153367154717757,87.21862566445043
2.23,-0.2224613669891674,86.97374183121882
2.24,-0.22097705428198364,86.79132836360752
2.25,-0.22326536970555863,86.15038241234315
2.26,-0.22326536970555863,85.96671953741944
2.27,-0.22171921063557554,84.95969724362006
2.28,-0.22110074700758228,84.83725532700426
2.29,-0.21955458793759922,84.16632360024214
2.3,-0.21881243158400732,84.07511686643649
2.31,-0.21893612430960596,83.34171477405405
2.32,-0.22140997882157892,83.09808034813486
2.33,-0.2140502616484594,82.57957631348629
2.34,-0.21268964166687426,82.36592766306484
2.35,-0.22017305156559244,81.63377497799482
2.36,-0.21652411616043235,81.4501121030711
2.37,-0.21349364438326549,80.87038711011463
2.38,-0.2112053289596905,80.68672423519094
2.39,-0.2104013262432993,80.10699924223447
2.4,-0.21058686533169726,79.527274249278
2.41,-0.20978286261530604,79.31362559885655
2.42,-0.2112053289596905,79.25240464054863
2.43,-0.21151456077368713,78.85634252251587
2.44,-0.21027763351770065,78.76513578871023
2.45,-0.21009209442930268,78.52025195547861
2.46,-0.20749454719173108,78.33783848786732
2.47,-0.20093883273500276,77.75811349491084
2.48,-0.20551546358215272,77.51322966167923
2.49,-0.20551546358215272,77.36080196956568
2.5,-0.1963622018878528,77.20837427745214
2.51,-0.18065322573682457,76.93350466872278
2.52,-0.1551725242635032,76.71985601830131
2.53,-0.11095237486198675,76.01768910872904
2.54,-0.09493416689696191,76.4150006340742
2.55,-0.12387826468704541,75.68284794900418
2.56,-0.15473959972390794,75.52917084957824
2.57,-0.18492062476997792,75.31677160646917
2.58,-0.20322714815857773,75.13310873154548
2.59,-0.20996840170370404,74.94944585662176
2.6,-0.21528718890444587,74.70581143070255
2.61,-0.2181939679560141,74.553383738589
2.62,-0.21893612430960596,74.27851412985964
2.63,-0.21423580073685736,73.78999587070884
2.64,-0.216647808886031,73.97365874563253
2.65,-0.2390980385821855,73.42391952817383
2.66,-0.20996840170370404,73.54636144478962
2.67,0.23130539686947071,73.02785741014107
2.68,1.5725674668984042,73.45515471098398
2.69,3.1390121438796754,72.9966222273309
2.7,2.7192608795606654,73.27149183606026
2.71,0.7437025126618677,72.53933915099024
2.72,-0.12894966643658995,72.4468830098722
2.73,-0.003339703591163481,72.3256905005688
2.74,-0.015585283425429577,72.35567627606655
2.75,-0.11781732113271169,71.92837897522362
2.76,-0.14676141892279518,71.95961415803379
2.77,-0.1434217153316317,71.74596550761233
2.78,-0.13519614907932165,71.53231685719086
2.79,-0.11930163383989545,71.47109589888296
2.8,-0.1032834258748706,71.62352359099653
2.81,-0.08775998881224036,71.04379859804006
2.82,-0.07489594534998102,71.25744724846152
2.83,-0.059681740101347386,71.16624051465585
2.84,-0.04440568848991443,70.86013572311634
2.85,-0.023068693324147748,70.5865155216994
2.86,0.0006184636279932371,70.8301499476186
2.87,0.02776901689689635,70.67772225550505
2.88,0.054301106537806225,70.86013572311634
2.89,0.08590459792826065,70.21918977185197
2.9,0.1269705828270116,70.37286687127794
2.91,0.17502520672208613,69.73192092001356
2.92,0.23483063954903216,69.60947900339777
2.93,0.312942595764578,69.82312765381921
2.94,0.4083096872011352,70.06676207973842
2.95,0.5174066711791422,71.89839319972587
2.96,0.6382544640890208,76.81106275210696
2.97,0.7583601006453075,83.64781956559357
2.98,0.855706275691443,92.37492964275071
2.99,0.8970814924041906,92.40616482556088
3.0,0.8523665721002796,102.20276756213771
3.01,0.7202008947981247,110.38138782914855
3.02,0.5302707146414015,118.43756617954358
3.03,0.3332282027627562,124.08363782430709
3.04,0.16692333319537472,128.38659660823396
3.05,0.040138289456761095,131.25523579751854
3.06,-0.04366353213632255,132.62833443385293
3.07,-0.08912060879382548,131.98738848258856
3.08,-0.11688962569072182,131.2240006147084
3.09,-0.1335262972837399,130.46186215414062
3.1,-0.13624753724691016,128.99630737668818
3.11,-0.13105244277176695,126.37255202063521
3.12,-0.13414476091173314,124.20483033361049
3.13,-0.13655676906090677,121.61106075305527
3.14,-0.13593830543291355,119.84189999868812
3.15,-0.13303152638134533,119.62825134826666
3.16,-0.12771273918060347,118.68120060546278
3.17,-0.13259860184175004,116.91203985109564
3.18,-0.13643307633530813,116.57594928405837
3.19,-0.14051493628006348,116.48474255025272
3.2,-0.147874653453183,116.75961215898208
3.21,-0.1577700715010748,116.97326080940354
3.22,-0.1702630367865382,117.46052966124195
3.23,-0.18127168936481783,117.39930870293405
3.24,-0.18739447928195088,117.18566005251259
3.25,-0.1953108137202643,117.03323236039904
3.26,-0.20489699995415947,116.30107967532902
3.27,-0.21132902168528914,115.35527833983754
3.28,-0.21163825349928578,114.22581412942236
3.29,-0.20947363080130943,112.51662492605071
3.3,-0.21287518075527223,111.47961685675358
3.31,-0.2177610434164188,110.62502225506775
3.32,-0.22110074700758228,110.35015264633839
3.33,-0.22493522150114037,110.28893168803049
3.34,-0.2221521351751708,110.28893168803049
3.35,-0.2236982942451539,110.28893168803049
3.36,-0.2266050732967221,110.77744994718131
3.37,-0.22932631325989236,110.62502225506775
3.38,-0.2287078496318991,111.05231955591066
3.39,-0.22567737785473224,111.02233378041292
3.4,-0.2236982942451539,111.23473302352197
3.41,-0.2302540087018822,112.2117695418236
3.42,-0.23118170414387207,111.90691415759649
3.43,-0.2339029441070423,111.35717494013777
3.44,-0.2339029441070423,110.77744994718131
3.45,-0.23513987136302877,109.86163438718758
3.46,-0.23087247232987546,108.7933911350803
3.47,-0.2258010705803309,107.78636884128092
3.48,-0.2258010705803309,106.62691885536799
3.49,-0.2255536851291336,105.34502695283925
3.5,-0.22413121878474915,103.78951484889356
3.51,-0.22277059880316405,103.02612698101338
3.52,-0.22295613789156202,101.92789795340835
3.53,-0.22351275515675592,101.98911891171625
3.54,-0.22462598968714376,101.98911891171625
3.55,-0.22171921063557554,101.92789795340835
3.56,-0.2224613669891674,101.10328912722028
3.57,-0.21837950704441206,100.5847850925717
3.58,-0.21578195980684045,99.82139722469154
3.59,-0.21528718890444587,99.42533510665878
3.6,-0.21868873885840867,98.81437493089216
3.61,-0.21466872527645262,97.86857359540068
3.62,-0.20842224263372094,97.47251147736792
3.63,-0.20873147444771756,97.1664066858284
3.64,-0.20768008628012904,96.70912360948775
3.65,-0.2067523908381392,95.94573574160758
3.66,-0.20551546358215272,95.88451478329966
3.67,-0.20322714815857773,95.48845266526692
3.68,-0.2023612990793872,94.9999344061161
3.69,-0.20007298365581222,94.17657498724043
3.7,-0.20124806454899938,93.87047019570092
3.71,-0.19883605639982577,93.443172894858
3.72,-0.20093883273500276,93.10833173513315
3.73,-0.1989597491254244,93.04711077682525
3.74,-0.19803205368343454,92.71102020978797
3.75,-0.19543450644586297,92.34494386725297
3.76,-0.19345542283628459,91.91764656641006
3.77,-0.19574373825985958,91.4603634900694
3.78,-0.19314619102228797,90.72696139768698
3.79,-0.19333173011068594,90.39212023796212
3.8,-0.190857875598713,89.44631890247064
3.81,-0.18999202651952246,89.50629045346614
3.82,-0.18782740382154614,89.07899315262323
3.83,-0.1817046139044131,88.71291681008822
3.84,-0.18448770023038266,87.76711547459674
3.85,-0.18813663563554275,87.33981817375383
3.86,-0.18844586744953937,86.91252087291092
3.87,-0.18479693204437928,86.63765126418156
3.88,-0.18052953301122593,86.21035396333865
3.89,-0.18189015299281105,85.81429184530589
3.9,-0.18263230934640295,85.47820127826861
3.91,-0.1814572284532158,85.08213916023587
3.92,-0.17712798305726313,84.6236066765828
3.93,-0.1679747213629632,84.19630937573989
3.94,-0.15579098789149645,84.22754455855004
3.95,-0.13334075819534194,83.89145399151278
3.96,-0.08485320976067215,83.49539187348002
3.97,-0.07019562177723242,83.00687361432921
3.98,-0.10878775216401042,82.60956208898403
3.99,-0.1306195182321717,82.21349997095128
4.0,-0.14237032716404321,81.72498171180047
4.01,-0.1679747213629632,81.3276701864553
4.02,-0.17595290216407597,81.3888911447632
4.03,-0.1773135221456611,80.87038711011463
4.04,-0.17669505851766787,80.13823442504462
4.05,-0.1791689130296408,80.13823442504462
4.06,-0.17168550313092265,79.74092289969946
4.07,-0.1681602604513612,79.7721580825096
4.08,-0.18887879198913463,79.31362559885655
4.09,-0.1942594255526758,78.97878443913169
4.1,0.14849311708117624,78.70391483040233
4.11,1.3728037150565886,78.70391483040233
4.12,3.127879798575797,78.1541756129436
4.13,3.199126808520618,78.21539657125152
4.14,1.2397721886752433,77.81808504590634
4.15,-0.0007421563535918846,77.7880992704086
4.16,0.036489354051600996,77.05594658533857
4.17,0.06759807453966082,77.05594658533857
4.18,-0.04681769663908805,76.53744255069002
4.19,-0.09035753604981195,76.32379390026856
4.2,-0.08373997523028431,76.53744255069002
4.21,-0.07508148443837899,76.3537796757663
4.22,-0.06605191546967773,76.20135198365276
4.23,-0.05368264290981299,75.8652614166155
4.24,-0.03908690128917259,75.71283372450193
4.25,-0.023625310589341662,75.8652614166155
4.26,-0.006555714456728314,75.37674315746467
4.27,0.009029568968701263,75.43796411577257
4.28,0.027645324171297704,75.31677160646917
4.29,0.0482401629834725,75.01066681492966
4.3,0.07081408540522566,74.88947430562627
4.31,0.0956763232505538,74.553383738589
4.32,0.1272798146410082,74.187307396054
4.33,0.16754179682336795,73.78999587070884
4.34,0.21163825349928578,73.72877491240092
4.35,0.27391754083820474,73.48514048648173
4.36,0.3524624215933459,73.48514048648173
4.37,0.44863351574629423,74.33973508816754
4.38,0.563976982367033,75.95646815042114
4.39,0.6894014061240615,80.80916615180674
4.4,0.8067239563543785,88.0419850833261
4.41,0.9033279750469222,96.09816343372113
4.42,0.951815523481592,96.5566959173742
4.43,0.909574457689654,106.23085673733523
4.44,0.7728321495403492,114.28703508773026
4.45,0.5770884112804896,121.91591613728238
4.46,0.37720096671307535,127.53200200654814
4.47,0.20662869811254053,131.49887022343776
4.48,0.0776790316759506,134.18509594511104
4.49,-0.009586186233895176,135.49697362313754
4.5,-0.06394913913450073,134.91724863018106
4.51,-0.09215108057099235,134.55117228764604
4.52,-0.10575728038684357,133.54414999384667
4.53,-0.11385915391355497,131.98738848258856
4.54,-0.11639485478832724,130.52183370513612
4.55,-0.11794101385831034,130.55306888794627
4.56,-0.1162711620627286,130.46186215414062
4.57,-0.12097148563547719,130.36940601302257
4.58,-0.1162711620627286,128.81389390907688
4.59,-0.11552900570913671,127.28711817331653
4.6,-0.1121274557551739,125.48672223613923
4.61,-0.1110760675875854,125.02943915979857
4.62,-0.1074271321824253,124.05240264149694
4.63,-0.10816928853601719,124.3272722502263
4.64,-0.11126160667598337,124.47969994233985
4.65,-0.11930163383989545,124.63212763445341
4.66,-0.12678504373861363,124.14485878261499
4.67,-0.1316709063997602,124.29728647472855
4.68,-0.14051493628006348,124.05240264149694
4.69,-0.1452771062156114,123.16782226431337
4.7,-0.1538119042819181,119.53579520714861
4.71,-0.16129531418063625,117.64419253616566
4.72,-0.16432578595780312,115.66013372406465
4.73,-0.1655627132137896,113.85973778688735
4.74,-0.1697064195213443,113.67732431927604
4.75,-0.17316981583810642,113.8909729696975
4.76,-0.17378827946609965,113.61610336096814
4.77,-0.173664586740501,112.24300472463375
4.78,-0.17595290216407597,111.23473302352197
4.79,-0.17824121758765096,111.17476147252647
4.8,-0.178055678499253,110.92987763929486
4.81,-0.17855044940164758,111.20474724802422
4.82,-0.1823230775324063,111.0823053314084
4.83,-0.18003476210883135,111.23473302352197
4.84,-0.18065322573682457,111.54083781506148
4.85,-0.17712798305726313,111.96813511590439
4.86,-0.17638582670367126,111.41839589844568
4.87,-0.17533443853608274,111.44838167394342
4.88,-0.1788596812156442,110.56380129675985
4.89,-0.1773135221456611,110.77744994718131
4.9,-0.17867414212724622,109.64798573676612
4.91,-0.17669505851766787,109.03827496831191
4.92,-0.175767363075678,107.63394114916736
4.93,-0.17409751128009626,107.1154371145188
4.94,-0.17242765948451452,105.58991078607086
4.95,-0.17657136579206922,104.30801888354212
4.96,-0.17440674309409288,103.26976140693259
4.97,-0.1754581312616814,102.72127159678628
4.98,-0.17514889944768477,101.28695200214398
4.99,-0.175767363075678,100.70722700918752
5.0,-0.17712798305726313,99.73019049088589
5.01,-0.17774644668525638,99.21168645623732
5.02,-0.1773135221456611,98.17342897962779
5.03,-0.1762621339780726,98.02100128751424
5.04,-0.17929260575523945,97.41129051906002
5.05,-0.17929260575523945,96.89153707709904
5.06,-0.17929260575523945,96.19061957483919
5.07,-0.18034399392282796,95.94573574160758
5.08,-0.17700429033166448,95.33602497315336
5.09,-0.1791689130296408,95.24356883203531
5.1,-0.17273689129851114,94.48143037146754
5.11,-0.17428305036849423,94.39022363766189
5.12,-0.1754581312616814,94.08411884612237
5.13,-0.17533443853608274,93.90170537851107
5.14,-0.17199473494491926,93.22952424443655
5.15,-0.1710670395029294,93.16955269344105
5.16,-0.1699538049725416,92.43615060105863
5.17,-0.16828395317695985,92.37492964275071
5.18,-0.16890241680495308,91.6427769576807
5.19,-0.1699538049725416,91.15425869852989
5.2,-0.16785102863736456,90.51331274726552
5.21,-0.16512978867419434,90.39212023796212
5.22,-0.17057226860053482,89.26265602754692
5.23,-0.1637073223298099,89.14021411093113
5.24,-0.16172823872023154,88.49926815966676
5.25,-0.16024392601304777,88.71291681008822
5.26,-0.16129531418063625,87.95077834952045
5.27,-0.15869776694306467,87.43102490755948
5.28,-0.1603676187386464,86.79132836360752
5.29,-0.15993469419905113,86.851299914603
5.3,-0.1574608396870782,86.02794049572734
5.31,-0.1574608396870782,86.05792627122509
5.32,-0.1596254623850545,85.14336011854377
5.33,-0.15900699875706129,84.86849050981441
5.34,-0.1567186833334863,84.4411932089715
5.35,-0.15640945151948968,84.37997225066358
5.36,-0.15838853512906803,83.67780534109131
5.37,-0.15059589341635327,83.64781956559357
5.38,-0.15164728158394175,83.22052226475066
5.39,-0.15195651339793836,83.1892870819405
5.4,-0.14849311708117624,82.91441747321115
5.41,-0.14509156712721344,82.6407972717942
5.42,-0.1457100307552067,81.60253979518465
5.43,-0.14391648623402628,81.90739517941176
5.44,-0.14051493628006348,81.0840357605361
5.45,-0.14422571804802292,81.0228148022282
5.46,-0.1475654216391864,80.32064789265593
5.47,-0.1397727799264716,80.29066211715818
5.48,-0.12480596012903526,79.527274249278
5.49,-0.10835482762441516,79.58849520758591
5.5,-0.07186547357281416,79.06999117293734
5.51,-0.03308780409763819,79.19243308955315
5.52,-0.04638477209949279,78.45903099717071
5.53,-0.07934888347153234,78.73390060590008
5.54,-0.10006741500930577,78.00174792083006
5.55,-0.12894966643658995,78.27661752955942
5.56,-0.1496681979743634,77.36080196956568
5.57,-0.1533789797423228,77.5444648444894
5.58,-0.15486329244950658,76.78107697660921
5.59,-0.1596254623850545,77.26959523576004
5.6,-0.16234670234822476,76.47622159238212
5.61,-0.15820299604067006,76.32379390026856
5.62,-0.16110977509223828,75.68284794900418
5.63,-0.18689970837955627,76.0489242915392
5.64,-0.0698863899632358,75.10312295604773
5.65,0.681485071685748,75.22431546535113
5.66,2.3749003314940307,74.7357972062003
5.67,3.528891614966612,75.07188777323756
5.68,2.2448992768898526,74.40095604647546
5.69,0.3582759796964823,74.98068103943191
5.7,-0.041498909438346214,73.69878913690319
5.71,0.0868322933702505,74.09485125493593
5.72,0.004267399033153337,73.51512626197947
5.73,-0.08652306155625389,73.97365874563253
5.74,-0.09369723964097544,73.21027087775236
5.75,-0.08392551431868228,73.30147761155801
5.76,-0.08132796708111069,72.7529878014117
5.77,-0.0688350017956473,72.9966222273309
5.78,-0.05875404465935753,72.47811819268235
5.79,-0.04397276395031916,72.78297357690946
5.8,-0.03141795230205645,71.56230263268861
5.81,-0.015708976151028224,72.17326280845523
5.82,0.0027212399631702435,71.83717224141797
5.83,0.02214099788215789,72.4468830098722
5.84,0.044096456675917814,71.77595128311007
5.85,0.07019562177723242,72.05082089183944
5.86,0.09963449046971051,71.40987494057507
5.87,0.13259860184175004,71.95961415803379
5.88,0.17378827946609965,70.9525918642344
5.89,0.2240075260591505,70.98257763973216
5.9,0.2933991451199917,70.92135668142424
5.91,0.3825197539138172,71.50108167438071
5.92,0.48586502615148713,72.14202762564508
5.93,0.6051666599913826,74.46217700478336
5.94,0.729044924678428,74.00364452113028
5.95,0.8416671513359965,75.31677160646917
5.96,0.9225621938775119,80.50431076757963
5.97,0.9347459273489787,88.83535872670402
5.98,0.8506967203046978,97.31883437794197
5.99,0.6857524707189014,110.22771072972259
6.0,0.4809791634903406,129.82091620287625
6.01,0.28412219070009315,130.30943446202707
6.02,0.1272798146410082,129.88213716118418
6.03,0.010513881675885033,130.7967033138655
6.04,-0.0646912954880926,132.38345060062133
6.05,-0.10983914033159893,133.45169385272862
6.06,-0.1324749091161514,132.7195411676586
6.07,-0.14620480165760127,131.46888444794
6.08,-0.15109066431874785,125.15188107641437
6.09,-0.15820299604067006,123.65634052346418
6.1,-0.16451132504620108,121.67228171136317
6.11,-0.1648205568601977,121.27621959333041
6.12,-0.15795561058947277,120.60403845925589
6.13,-0.15640945151948968,120.45161076714234
6.14,-0.1551725242635032,120.36040403333668
6.15,-0.15245128430033297,120.81768710967735
6.16,-0.15362636519352013,120.69524519306154
6.17,-0.16172823872023154,120.8489222924875
6.18,-0.16308885870181664,120.8489222924875
6.19,-0.16389286141820786,121.70226748686092
6.2,-0.1702630367865382,121.0313357600988
6.21,-0.18448770023038266,121.21499863502251
6.22,-0.19592927734825755,120.54281750094799
6.23,-0.20978286261530604,120.20797634122313
6.24,-0.214359493462456,118.34635944573793
6.25,-0.21912166339800393,117.64419253616566
6.26,-0.22536814604073563,116.81958370997758
6.27,-0.22932631325989236,115.32529256433979
6.28,-0.23421217592103893,113.28001279393088
6.29,-0.23971650221017873,112.42541819224505
6.3,-0.2467051412065023,111.96813511590439
6.31,-0.24491159668532192,112.3342114584394
6.32,-0.24732360483449556,111.0823053314084
6.33,-0.24553006031331517,110.92987763929486
6.34,-0.24627221666690705,110.4725945629542
6.35,-0.24917899571847527,111.38841012294793
6.36,-0.24843683936488337,110.89989186379711
6.37,-0.24701437302049895,111.57082359055923
6.38,-0.24503528941092056,112.3954324167473
6.39,-0.24948822753247188,112.70028780097441
6.4,-0.2519002356816455,112.2729905001315
6.41,-0.25239500658404007,112.3954324167473
6.42,-0.2383558822285936,111.47961685675358
6.43,-0.2177610434164188,111.60205877336938
6.44,-0.19104341468711097,110.32016687084064
6.45,-0.15164728158394175,109.74044187788418
6.46,-0.13915431629847838,107.75638306578317
6.47,-0.17224212039611655,107.1154371145188
6.48,-0.19562004553426093,105.71110329537426
6.49,-0.216647808886031,105.16261348522795
6.5,-0.2390980385821855,103.78951484889356
6.51,-0.25208577477004346,103.42343850635855
6.52,-0.25332270202602997,102.87369928889983
6.53,-0.2544977829192171,103.39220332354839
6.54,-0.25251869930963877,102.96490602270548
6.55,-0.25406485837962184,103.39220332354839
6.56,-0.25437409019361845,102.59882968017047
6.57,-0.24565375303891382,102.08032564552191
6.58,-0.26822767546066695,101.07330335172253
6.59,-0.22641953420832414,101.13452431003043
6.6,0.2674855191070751,99.54652761596218
6.61,1.6738718091636964,98.5395053221628
6.62,3.1294259576457804,97.62493916948148
6.63,2.4673606438790197,97.74613167878488
6.64,0.5084389485732403,96.92277225990921
6.65,-0.1901157192451211,97.19764186863857
6.66,-0.02195545879375992,96.46423977625614
6.67,-0.03296411137203954,96.6179168756821
6.68,-0.1162711620627286,96.06817765822338
6.69,-0.1371752326889,96.31181208414259
6.7,-0.12301241560785488,95.33602497315336
6.71,-0.11231299484357188,95.57965939907257
6.72,-0.09734617504613553,94.32900267935398
6.73,-0.08256489433709717,94.54265132977544
6.74,-0.06314513641810952,93.87047019570092
6.75,-0.04650846482509144,93.6268357697817
6.76,-0.029315175966879443,92.77224116809589
6.77,-0.010513881675885033,92.71102020978797
6.78,0.011008652578279623,91.55157022387505
6.79,0.03432473135362466,91.5815559993728
6.8,0.06209374825052101,90.30091350415647
6.81,0.10161357407928887,90.48332697176777
6.82,0.1449678744016148,89.56751141177403
6.83,0.1916618783151042,89.32387698585484
6.84,0.25925995285476505,88.37807565036336
6.85,0.34516455078302566,88.469282384169
6.86,0.452591682965451,87.49224586586737
6.87,0.5773976430944863,87.67590874079109
6.88,0.7150058003229816,87.40103913206173
6.89,0.8459345503691499,88.98778641881758
6.9,0.9547223025331603,91.03306618922649
6.91,0.9986950664834794,96.5566959173742
6.92,0.9383948627541387,102.72127159678628
6.93,0.7694924459491858,110.4113736046463
6.94,0.5459796907924298,116.78959793447983
6.95,0.32469340469644953,123.13658708150321
6.96,0.1382266208564885,127.10470470570523
6.97,0.00531878720074184,130.46186215414062
6.98,-0.08225566252310054,131.6512979155513
6.99,-0.13364999000933855,132.62833443385293
7.0,-0.16222300962262612,131.74375405666936
7.01,-0.18189015299281105,132.13981617470213
7.02,-0.19487788918066903,131.25523579751854
7.03,-0.20631946629854392,131.01035196428694
7.04,-0.20978286261530604,129.82091620287625
7.05,-0.20749454719173108,129.45483986034125
7.06,-0.20539177085655408,128.0505060411967
7.07,-0.20112437182340073,127.62320874035379
7.08,-0.19914528821382238,127.01349797189958
7.09,-0.19061049014751572,127.07346952289508
7.1,-0.18677601565395763,126.21887492120925
7.11,-0.17929260575523945,126.67740740486232
7.12,-0.1733553549265044,125.76159184486859
7.13,-0.16828395317695985,126.31133106232731
7.14,-0.1674181040977693,125.45673646064148
7.15,-0.16618117684178282,125.88403376148439
7.16,-0.17075780768893278,124.84577628487486
7.17,-0.17681875124326651,124.51093512515001
7.18,-0.1835600047883928,122.49689053755125
7.19,-0.18844586744953937,120.63527364206604
7.2,-0.20186652817699263,118.13271079531647
7.21,-0.20693792992653717,116.88080466828548
7.22,-0.21528718890444587,114.83677430518898
7.23,-0.21714257978842558,114.0121654790009
7.24,-0.22097705428198364,112.24300472463375
7.25,-0.22202844244957215,112.94392222689362
7.26,-0.22338906243115728,112.30297627562925
7.27,-0.22097705428198364,112.82272971759022
7.28,-0.2236982942451539,112.2117695418236
7.29,-0.22505891422673902,112.45665337505521
7.3,-0.22413121878474915,111.99812089140214
7.31,-0.22493522150114037,112.45665337505521
7.32,-0.2224613669891674,111.96813511590439
7.33,-0.22431675787314712,112.42541819224505
7.34,-0.22017305156559244,112.02935607421229
7.35,-0.2203585906539904,112.2729905001315
7.36,-0.21974012702599718,111.17476147252647
7.37,-0.22202844244957215,110.96111282210501
7.38,-0.22307983061716066,109.61799996126837
7.39,-0.2255536851291336,108.88584727619835
7.4,-0.22691430511071872,107.26786480663235
7.41,-0.22598660966872888,106.50572634606459
7.42,-0.2221521351751708,104.85775810100084
7.43,-0.22017305156559244,104.27678370073197
7.44,-0.22264690607756538,102.96490602270548
7.45,-0.22110074700758228,102.23275333763546
7.46,-0.22307983061716066,100.5847850925717
7.47,-0.22307983061716066,100.2799297083446
7.48,-0.22110074700758228,99.02802358131362
7.49,-0.22153367154717757,98.69318242158876
7.5,-0.22202844244957215,97.59370398667131
7.51,-0.22184290336117418,97.65492494497923
7.52,-0.2203585906539904,96.6778884266776
7.53,-0.21807027523041544,96.58668169287195
7.54,-0.21609119162083706,96.09816343372113
7.55,-0.2140502616484594,96.49547495906629
7.56,-0.21207117803888104,95.67086613287822
7.57,-0.21151456077368713,96.09816343372113
7.58,-0.21330810529486752,95.3660107486511
7.59,-0.2096591698897074,95.48845266526692
7.6,-0.21268964166687426,94.23654653823593
7.61,-0.21207117803888104,94.26778172104608
7.62,-0.21176194622488442,93.50439385316591
7.63,-0.20922624535011214,93.53562903597606
7.64,-0.2081130108197243,92.77224116809589
7.65,-0.20644315902414256,92.46738578386878
7.66,-0.20934993807571078,91.18549388134004
7.67,-0.20718531537773446,91.6427769576807
7.68,-0.20464961450296218,90.72696139768698
7.69,-0.2026086845305845,90.84940331430278
7.7,-0.20186652817699263,90.05602967092486
7.71,-0.20539177085655408,90.2696783213463
7.72,-0.20112437182340073,89.01902160162773
7.73,-0.20007298365581222,88.80537295120627
7.74,-0.19957821275341764,88.103206041634
7.75,-0.2005059081954075,88.01199930782835
7.76,-0.19654774097625077,86.94375605572107
7.77,-0.1986505173114278,86.63765126418156
7.78,-0.19778466823223725,85.96671953741944
7.79,-0.19698066551584603,85.96671953741944
7.8,-0.19698066551584603,85.20333166953927
7.81,-0.19562004553426093,85.23456685234942
7.82,-0.18968279470552585,84.40995802616133
7.83,-0.19042495105911772,84.5024141672794
7.84,-0.1924040346686961,83.76901207489696
7.85,-0.18603385930036576,83.55536342447552
7.86,-0.1854153956723725,82.7020182301021
7.87,-0.1877037110959475,82.7619897810976
7.88,-0.18937356289152923,81.93863036222191
7.89,-0.18659047656555966,81.87740940391402
7.9,-0.18875509926353598,80.93160806842255
7.91,-0.1854153956723725,81.05404998503835
7.92,-0.1838692366023894,80.29066211715818
7.93,-0.18052953301122593,80.56553172588752
7.94,-0.17972553029483473,79.80214385800735
7.95,-0.17774644668525638,80.01579250842882
7.96,-0.17681875124326651,79.37484655716445
7.97,-0.16463501777179973,79.527274249278
7.98,-0.14540079894121005,78.70391483040233
7.99,-0.12480596012903526,78.85634252251587
8.0,-0.07934888347153234,78.24538234674927
8.01,-0.060300203729340626,78.33783848786732
8.02,-0.09629478687854703,77.42202292787358
8.03,-0.1293825909761852,77.69689253660295
8.04,-0.14880234889517288,77.14715331914422
8.05,-0.1695208804329463,77.26959523576004
8.06,-0.17941629848083812,76.68987024280356
8.07,-0.18189015299281105,76.84229793491713
8.08,-0.18492062476997792,76.32379390026856
8.09,-0.18887879198913463,76.50620736787987
8.1,-0.18399292932798805,75.8652614166155
8.11,-0.18127168936481783,75.8652614166155
8.12,-0.19852682458582913,75.25555064816128
8.13,-0.20996840170370404,75.68284794900418
8.14,0.10680866855443207,74.94944585662176
8.15,1.2950009906550393,74.79701816450822
8.16,3.0983172371577203,74.40095604647546
8.17,3.3119345742665844,74.4309418219732
8.18,1.38548221943045,73.97365874563253
8.19,0.03964351855436651,74.33973508816754
8.2,0.023068693324147748,73.48514048648173
8.21,0.0628359046041129,73.60758240309752
8.22,-0.06085682099453454,73.21027087775236
8.23,-0.11064314304799014,73.66880336140544
8.24,-0.10006741500930577,73.24150606056251
8.25,-0.0930787760129822,73.51512626197947
8.26,-0.09171815603139707,72.90541549352525
8.27,-0.08256489433709717,73.21027087775236
8.28,-0.07001008268883445,72.47811819268235
8.29,-0.05584726560778932,72.90541549352525
8.3,-0.040138289456761095,72.41689723437445
8.31,-0.025047776933726108,72.66053166029364
8.32,-0.010823113489881651,72.08080666733719
8.33,0.008411105340708026,72.53933915099024
8.34,0.03525242679561452,71.95961415803379
8.35,0.055723572882190674,71.98959993353154
8.36,0.08423474613267891,71.28743302395925
8.37,0.11930163383989545,71.53231685719086
8.38,0.1655627132137896,71.0737843735378
8.39,0.2221521351751708,71.71473032480218
8.4,0.29723361961354977,71.56230263268861
8.41,0.3889517756449469,73.42391952817383
8.42,0.499594918692937,74.3697208636653
8.43,0.6218033315844007,74.79701816450822
8.44,0.7482791435090177,76.38376545126405
8.45,0.8598499819989976,82.7619897810976
8.46,0.9257782047430767,90.36088505515197
8.47,0.9091415331500586,99.63898375708024
8.48,0.7962100746784936,107.60395537366962
8.49,0.6121552989877062,115.26407160603189
8.5,0.4127626253226865,121.12254249390445
8.51,0.2375518795122024,127.19591143951088
8.52,0.10192280589328549,130.36940601302257
8.53,0.007607102624316817,130.70549658005984
8.54,-0.052012791114231245,130.36940601302257
8.55,-0.08775998881224036,130.76671753836774
8.56,-0.10513881675885033,130.43062697133047
8.57,-0.11138529940158202,131.102808105405
8.58,-0.11491054208114347,130.58305466344402
8.59,-0.11354992209955835,130.36940601302257
8.6,-0.11095237486198675,127.9280641245809
8.61,-0.1048295849448537,125.67038511106294
8.62,-0.10346896496326859,124.90699724318276
8.63,-0.10285050133527535,125.21185262740987
8.64,-0.10637574401483679,125.12064589360422
8.65,-0.1089732912524084,125.51795741894938
8.66,-0.10878775216401042,125.12064589360422
8.67,-0.10866405943841177,125.63914992825278
8.68,-0.1129314584715651,125.45673646064148
8.69,-0.1235690328730488,125.85279857867424
8.7,-0.13853585267048513,125.39551550233358
8.71,-0.15078143250475123,125.27307358571777
8.72,-0.15733714696147955,124.23606551642065
8.73,-0.16983011224694294,122.92418783839416
8.74,-0.17564367035007936,120.72648037587169
8.75,-0.18708524746795424,119.20095404742375
8.76,-0.19289880557109068,117.27811619363065
8.77,-0.19698066551584603,116.72837697617193
8.78,-0.19747543641824064,116.42352159194482
8.79,-0.199454520027819,116.85081889278773
8.8,-0.2023612990793872,115.93500333279401
8.81,-0.2044640754145642,115.44648507364319
8.82,-0.20749454719173108,114.71433238857317
8.83,-0.2107105580572959,114.77555334688107
8.84,-0.212256717127279,114.43946277984381
8.85,-0.21268964166687426,114.74431816407092
8.86,-0.21132902168528914,114.50068373815171
8.87,-0.2119474853132824,114.80553912237882
8.88,-0.21757550432802084,114.34825604603816
8.89,-0.22171921063557554,114.25704931223251
8.9,-0.21893612430960596,113.40245471054668
8.91,-0.2177610434164188,113.28001279393088
8.92,-0.22066782246798702,112.3954324167473
8.93,-0.22505891422673902,111.81570742379084
8.94,-0.22462598968714376,110.5338155212621
8.95,-0.22277059880316405,109.80041342887968
8.96,-0.22140997882157892,108.09247363282043
8.97,-0.2221521351751708,107.48151345705381
8.98,-0.22351275515675592,106.07842904522167
8.99,-0.22672876602232075,105.4374830939573
9.0,-0.22079151519358567,104.36923984185002
9.01,-0.22110074700758228,103.97192831650486
9.02,-0.21924535612360257,102.93492024720773
9.03,-0.21868873885840867,102.99614120551563
9.04,-0.21955458793759922,101.80545603679255
9.05,-0.22307983061716066,101.28695200214398
9.06,-0.22097705428198364,100.34115066665251
9.07,-0.2200493588399938,100.1574877917288
9.08,-0.21943089521200054,99.18045127342717
9.09,-0.2221521351751708,99.12047972243167
9.1,-0.22122443973318096,98.38707763004925
9.11,-0.2181939679560141,98.32585667174135
9.12,-0.2164004234348337,97.56371821117358
9.13,-0.21547272799284384,97.50249725286567
9.14,-0.21881243158400732,96.8003303432934
9.15,-0.21788473614201745,96.49547495906629
9.16,-0.21912166339800393,95.54967362357482
9.17,-0.21528718890444587,95.73208709118612
9.18,-0.2164004234348337,95.12237632273191
9.19,-0.21466872527645262,94.9999344061161
9.2,-0.21454503255085397,94.11535402893253
9.21,-0.21392656892286074,93.84048442020317
9.22,-0.2107105580572959,93.1995384689388
9.23,-0.20693792992653717,93.01587559401509
9.24,-0.20539177085655408,92.19251617513942
9.25,-0.2082985499081223,91.9476323419078
9.26,-0.20662869811254053,91.15425869852989
9.27,-0.19914528821382238,91.12427292303214
9.28,-0.1968569727902474,90.33089927965422
9.29,-0.19834128549743116,90.30091350415647
9.3,-0.19988744456741425,89.5987465945842
9.31,-0.20124806454899938,89.38509794416274
9.32,-0.20477330722856082,88.71291681008822
9.33,-0.20007298365581222,88.4080614258611
9.34,-0.19883605639982577,87.70589451628884
9.35,-0.2005059081954075,87.79835065740689
9.36,-0.20112437182340073,87.06494856502447
9.37,-0.19759912914383929,86.97374183121882
9.38,-0.1898064874311245,86.4240026137601
9.39,-0.1854153956723725,86.3028101044567
9.4,-0.18918802380313127,85.50943646107878
9.41,-0.1898064874311245,85.44821550277088
9.42,-0.18603385930036576,84.71606281770086
9.43,-0.1861575520259644,84.6236066765828
9.44,-0.18219938480680767,83.76901207489696
9.45,-0.17898337394124283,83.61658438278342
9.46,-0.17607659488967461,83.3117289985563
9.47,-0.16234670234822476,83.46415669066987
9.48,-0.1460192625692033,82.48836957968064
9.49,-0.1110760675875854,82.30470670475692
9.5,-0.07062854631682769,81.81618844560612
9.51,-0.0863375224678559,81.72498171180047
9.52,-0.12387826468704541,81.17524249434175
9.53,-0.1353198418049203,81.5725540196869
9.54,-0.15820299604067006,81.17524249434175
9.55,-0.16908795589335104,81.3276701864553
9.56,-0.16908795589335104,80.47307558476948
9.57,-0.1697064195213443,80.71795941800109
9.58,-0.17428305036849423,79.8333790408175
9.59,-0.17168550313092265,79.55850943208816
9.6,-0.1655627132137896,79.03875599012719
9.61,-0.1671088722837727,78.97878443913169
9.62,-0.1942594255526758,78.55148713828878
9.63,-0.06407283186009938,78.55148713828878
9.64,0.6965755842087831,78.1541756129436
9.65,2.3651286061717376,78.1541756129436
9.66,3.4306177444784867,77.6656573537928
9.67,2.102528949725809,77.7268783121007
9.68,0.2937083769339883,77.17713909464197
9.69,-0.03568535133520979,77.05594658533857
9.7,0.09431570326896867,76.56742832618777
9.71,0.007916334438313436,76.56742832618777
9.72,-0.07446302081038576,76.3537796757663
9.73,-0.07798826348994721,76.2925587174584
9.74,-0.06605191546967773,75.65161276619403
9.75,-0.05782634921736768,75.95646815042114
9.76,-0.04564261574590091,75.46919929858274
9.77,-0.03079948867406321,75.43796411577257
9.78,-0.020594838812174797,75.16309450704323
9.79,-0.007174178084721552,75.40797834027484
9.8,0.011317884392276241,74.88947430562627
9.81,0.02776901689689635,74.98068103943191
9.82,0.04669400391348941,74.3084999053574
9.83,0.06957715814923919,74.40095604647546
9.84,0.09610924779014907,74.1260864377461
9.85,0.12251764470546028,73.97365874563253
9.86,0.16129531418063625,73.24150606056251
9.87,0.201557296362996,73.21027087775236
9.88,0.2536319338400266,73.05784318563882
9.89,0.3219721647332793,73.24150606056251
9.9,0.4119586226062953,73.14904991944447
9.91,0.5189528302491253,74.70581143070255
9.92,0.6342962968698641,75.25555064816128
9.93,0.7597207206268926,75.52917084957824
9.94,0.8735798745404475,77.9717621453323
9.95,0.9570106179567353,84.40995802616133
9.96,0.9713589741261783,91.97886752471796
9.97,0.8900310070450677,101.34817296045189
9.98,0.7250867574592713,119.1084979063057
9.99,0.5198805256911152,131.5900769572434
