time_s,ECG1,ECG2,NIBP
0.0,0.9026888610167867,0.717741887681857,65.08469643198501
0.01,0.424139090738428,-0.03552676949772799,60.18144563248132
0.02,0.09697320655485374,-0.1432238744223352,58.72302007797538
0.03,0.05870408672669307,-0.12701979035130742,58.476463128517395
0.04,-0.04629861692263451,-0.08127327992451772,58.218497374200176
0.05,-0.057321114219418656,-0.10443100215346378,58.139903385169866
0.06,-0.07994406747274341,-0.08070434589341531,57.83693623390788
0.07,-0.07703363279325547,-0.09979524338151825,57.92630520530524
0.08,-0.08574429545101371,-0.06679706957757872,57.45537509361558
0.09,-0.07761159145301194,-0.08590903869646324,57.56756167473142
0.1,-0.09501227538782285,-0.0540698045855101,57.107406545408814
0.11,-0.0741438394944731,-0.0754785814595858,57.0509963436048
0.12,-0.07876750877252488,-0.03436782980474161,56.73725420997575
0.13,-0.05674315555966218,-0.05232085923063974,56.61365882400067
0.14,-0.07181136347474162,-0.012369047268781928,56.42287825385453
0.15,-0.04629861692263451,-0.026845257615720913,56.28850788551239
0.16,-0.06021090751820101,0.02235700025924638,56.108502297733295
0.17,-0.033542243646580955,0.01715230745619845,56.07490970564776
0.18,-0.04165430626387715,0.07621608853694077,55.94053933730562
0.19,-0.011497249053012672,0.08201078700187268,56.28850788551239
0.2,-0.006852938394255309,0.15843759184662917,56.87162457831789
0.21,0.032592740134123895,0.18795894657160953,58.25208996628571
0.22,0.037237050792881254,0.26090893233740686,60.40581879471301
0.23,0.07494885334199104,0.27481620865324347,63.53626808358952
0.24,0.08479479193855666,0.33154103871723145,67.2168752956782
0.25,0.12077271850839703,0.3199727134181492,70.78466210415884
0.26,0.1114840971908823,0.32865422530015626,73.74714843260767
0.27,0.12657294648666734,0.24875060137644064,76.10306663604035
0.28,0.07899456396028635,0.1891178862645959,77.65149498443586
0.29,0.059282045386449544,0.07737502822992716,78.54898763336259
0.3,0.0007018069439900015,0.03567427091319898,78.8069533876798
0.31,-0.014387042351795032,-0.04827510612057819,78.77336079559427
0.32,-0.04918841022141687,-0.04827510612057819,78.45961866196522
0.33,-0.06021090751820101,-0.0940216165473679,77.94305333083861
0.34,-0.07065544615522869,-0.07084282268764028,77.31493524108832
0.35,-0.05905499019868807,-0.10502100781534775,76.66399954161957
0.36,-0.07123340481498515,-0.07259176804251063,76.03588145186929
0.37,-0.061965424878176016,-0.10095418307450463,75.48572352865713
0.38,-0.08341181943128224,-0.07084282268764028,74.94760823279641
0.39,-0.053254762220417765,-0.10095418307450463,74.46463549375532
0.4,-0.07703363279325547,-0.07431964176659943,73.93729518026164
0.41,-0.04918841022141687,-0.09922630935041585,73.44418128134569
0.42,-0.06776565285644633,-0.07316070207361304,72.90543216299277
0.43,-0.04338818224314656,-0.09459055057847032,72.29949786046879
0.44,-0.06254338353793248,-0.06679706957757872,71.54778438474344
0.45,-0.042810223583390095,-0.09227267119249755,70.63888293095746
0.46,-0.0584770315389316,-0.062161310805633196,69.57279349911087
0.47,-0.042810223583390095,-0.09111373149951117,68.47311147517874
0.48,-0.06485521817695837,-0.059843431419660434,67.38483825610587
0.49,-0.050344327540929816,-0.09343161088548393,66.42016042300806
0.5,-0.07296728079425457,-0.0673870752394627,65.61203674547869
0.51,-0.04803249290190393,-0.10211312276749102,64.9839186557284
0.52,-0.0741438394944731,-0.07143282834952425,64.56876492335057
0.53,-0.06136682483771396,-0.10790782123242292,64.36657554834518
0.54,-0.07703363279325547,-0.0749096474284834,64.37798435320443
0.55,-0.054988638199687176,-0.1084978268943069,64.51298854403875
0.56,-0.07876750877252488,-0.08070434589341531,64.74813668863749
0.57,-0.060788866177957486,-0.11486145939034122,64.9839186557284
0.58,-0.08283386077152577,-0.08070434589341531,65.21970062281933
0.59,-0.06254338353793248,-0.11254358000436844,65.39907238810625
0.6,-0.07761159145301194,-0.08475009900347685,65.51125896922208
0.61,-0.060788866177957486,-0.11602039908332759,65.57844415339315
0.62,-0.0781895501127684,-0.08531903303457926,65.5676691710261
0.63,-0.04572065826287804,-0.10327206246047739,65.52266777408133
0.64,-0.03120976762684948,-0.04536722107272145,65.39907238810625
0.65,0.002435682923259417,-0.0540698045855101,65.20829181796009
0.66,-0.01787543569103945,-0.01352798696176831,65.0061024429547
0.67,0.0007018069439900015,-0.025117383891632126,64.74813668863749
0.68,0.047681589429908924,0.03567427091319898,64.38939315806367
0.69,-0.006274979734498838,-0.01352798696176831,63.962830620826594
0.7,-0.07007748749547221,-0.009482233851706759,63.502675491503986
0.71,-0.05383272088017423,-0.06275131646751718,62.998152787728785
0.72,-0.07472179815422958,-0.06391025616050355,62.49299626146141
0.73,-0.07356588083471663,-0.11890721250040276,62.032841132138806
0.74,-0.09559023404757933,-0.08938585777542238,61.5505022155899
0.75,-0.09327839940855344,-0.13165554912325295,61.07957210390023
0.76,-0.10952316602385141,-0.10270312842937498,60.63082577943687
0.77,-0.09385635806830991,-0.13858811565038967,60.159261845255024
0.78,-0.11532339400212173,-0.10558994184645015,59.75551691773643
0.79,-0.09850066872706728,-0.1374291759574033,59.37395577744413
0.8,-0.11299091798239025,-0.11079463464949808,59.0373960340966
0.81,-0.17565814980455627,-0.20285658953417993,58.75661267006091
0.82,-0.12227953929990497,-0.039003588576687134,58.532239507829225
0.83,0.2454879407315614,0.3755596754199324,58.33068395531602
0.84,0.6799477218227835,0.8914353402143432,58.139903385169866
0.85,0.8377304359363004,0.6499965947191075,57.95989779739078
0.86,0.2924677232174803,-0.06275131646751718,57.803343641822345
0.87,0.07030454268323369,-0.1577000847692742,57.6911570607065
0.88,0.008235910901529723,-0.09170373716139514,57.601154266816955
0.89,-0.0387438715843892,-0.10270312842937498,57.57897047959066
0.9,-0.07876750877252488,-0.07431964176659943,57.54474406501294
0.91,-0.07472179815422958,-0.11022570061839568,57.421782501530046
0.92,-0.09270044074879696,-0.06506919585348994,57.27600332832867
0.93,-0.08921204740955255,-0.09979524338151825,57.07381395332328
0.94,-0.09850066872706728,-0.056956618002585266,56.86084959595083
0.95,-0.08574429545101371,-0.08647797272756565,56.680844008171746
0.96,-0.09443431672806639,-0.04420828137973507,56.512881047744074
0.97,-0.07181136347474162,-0.06911494896355148,56.355693069683454
0.98,-0.08863408874979607,-0.023958444198645745,56.153503694678065
0.99,-0.06021090751820101,-0.03959359423857111,55.929130532446386
1.0,-0.07703363279325547,0.0067429218501025845,55.7047573702147
1.01,-0.057899072879175124,-0.011800113237679523,55.52538560492779
1.02,-0.057899072879175124,0.04494578845709004,55.41319902381195
1.03,-0.03178772628660595,0.04610472815007642,55.424607828671185
1.04,-0.03063180896709301,0.11210107575795547,55.682573582988404
1.05,-0.0051190624149858935,0.12716729176677843,56.32210047759792
1.06,0.014614097539556503,0.21286561415542596,57.724749652792035
1.07,0.050571382728691286,0.23254651730541287,60.237855834285334
1.08,0.0662381906842328,0.30897332215016937,63.78345885553968
1.09,0.10917226255185641,0.3112912015361421,67.69921421222709
1.1,0.10857366251139436,0.359334519718123,71.19981583653667
1.11,0.13584092642347648,0.31070119587425815,74.0051141869249
1.12,0.10917226255185641,0.28174877518038016,76.08088284881406
1.13,0.10683978653212493,0.16305227898779312,77.482898201516
1.14,0.04652567211039598,0.11269108141983944,78.24602048210059
1.15,0.021570242837339753,0.004425042464129821,78.44820985710598
1.16,-0.02831997432806712,-0.011210107575795547,78.24602048210059
1.17,-0.036432036945363316,-0.06911494896355148,77.83086674972276
1.18,-0.05209884490090482,-0.0546387386166125,77.33711902831462
1.19,-0.05556659685944365,-0.10327206246047739,76.83259632453942
1.2,-0.07587771547374252,-0.06911494896355148,76.27166341896022
1.21,-0.060788866177957486,-0.10327206246047739,75.64291150671775
1.22,-0.07472179815422958,-0.06447919019160596,74.99260962974118
1.23,-0.054988638199687176,-0.10095418307450463,74.39745030958426
1.24,-0.07472179815422958,-0.06854601493244908,73.81433361677875
1.25,-0.05383272088017423,-0.09922630935041585,73.2641756935666
1.26,-0.07007748749547221,-0.06275131646751718,72.74824418493216
1.27,-0.05674315555966218,-0.09979524338151825,72.20949506657925
1.28,-0.06543317683671485,-0.06622813554647632,71.5927857816882
1.29,-0.0486104515616604,-0.09459055057847032,70.82966350110361
1.3,-0.05674315555966218,-0.05638768397148286,69.85357686314657
1.31,-0.04629861692263451,-0.09286267685438153,68.77607862644074
1.32,-0.06543317683671485,-0.05811555769557165,67.71062301708633
1.33,-0.05441067953993071,-0.0963184243025591,66.70030996455156
1.34,-0.0683436115162028,-0.062161310805633196,65.78063352839854
1.35,-0.06312134219768896,-0.10270312842937498,64.99532746058765
1.36,-0.07703363279325547,-0.06911494896355148,64.35580056597813
1.37,-0.07876750877252488,-0.1090667609254093,63.873461649429224
1.38,-0.08283386077152577,-0.07954540620042892,63.6376796823383
1.39,-0.0723893221344981,-0.11195357434248447,63.61486207261983
1.4,-0.08632225411077019,-0.07606858712146979,63.79486766039892
1.41,-0.0781895501127684,-0.11602039908332759,64.0414246098569
1.42,-0.09618883408804138,-0.08186328558640169,64.33298295625966
1.43,-0.07123340481498515,-0.11543039342144362,64.64735891238088
1.44,-0.09270044074879696,-0.08416009334159288,64.9053246666981
1.45,-0.07761159145301194,-0.11543039342144362,65.07392144961796
1.46,-0.08921204740955255,-0.08531903303457926,65.16329042101532
1.47,-0.07123340481498515,-0.11602039908332759,65.12969782892978
1.48,-0.08863408874979607,-0.07200176238062665,65.0061024429547
1.49,-0.07065544615522869,-0.08531903303457926,64.79313808558226
1.5,-0.036432036945363316,-0.02336843853676177,64.55735611849134
1.51,-0.015542959671307975,-0.021050559150789006,64.29939036417412
1.52,-0.04629861692263451,0.020629126535157593,64.01924082263061
1.53,0.014614097539556503,0.015993367763212068,63.6598634695646
1.54,-0.07761159145301194,0.00731185588120499,63.256118542046
1.55,-0.07587771547374252,-0.051751925199537335,62.829556004808936
1.56,-0.10256702072606816,-0.04248040765564628,62.335808283400794
1.57,-0.07936610881298693,-0.10386206812236137,61.80846796990712
1.58,-0.10487885536509406,-0.08995479180652478,61.30394526613192
1.59,-0.1019890620663117,-0.12874766407539623,60.84379013680931
1.6,-0.1118350006628773,-0.09806736965742946,60.395043812345946
1.61,-0.09385635806830991,-0.13801918161928728,59.979890079968115
1.62,-0.10545681402485052,-0.10617994750833414,59.55332754273104
1.63,-0.09501227538782285,-0.1368602419263009,59.18317520729798
1.64,-0.10661273134436347,-0.10327206246047739,58.86879925117675
1.65,-0.1478129272327177,-0.20401552922716631,58.577240904774
1.66,-0.14432453389347324,-0.07722752681445616,58.34145893768308
1.67,0.19153137156715366,0.3141780149532173,58.139903385169866
1.68,0.6109229447432963,0.8804359489463633,57.92630520530524
1.69,0.8574429545101372,0.7669652171876058,57.7133408479328
1.7,0.3609145416372111,0.017742313118082425,57.53396908264589
1.71,0.07899456396028635,-0.16233584354121972,57.37678110458527
1.72,0.02099228417758328,-0.08416009334159288,57.20818432166542
1.73,-0.05267680356066129,-0.10790782123242292,57.0509963436048
1.74,-0.08921204740955255,-0.07084282268764028,56.91662597526267
1.75,-0.08747817143028314,-0.10211312276749102,56.78225560692053
1.76,-0.10314497938582463,-0.061002371112646815,56.61365882400067
1.77,-0.09501227538782285,-0.0957494902714567,56.40069446662823
1.78,-0.10719069000411995,-0.0546387386166125,56.20991389648208
1.79,-0.08632225411077019,-0.08531903303457926,56.04131711356223
1.8,-0.09385635806830991,-0.03552676949772799,55.87335415313456
1.81,-0.07356588083471663,-0.06391025616050355,55.69398238784764
1.82,-0.08516633679125725,-0.021640564812672982,55.53679440978703
1.83,-0.06254338353793248,-0.03148101638766644,55.356788822007935
1.84,-0.07587771547374252,0.012516548684252922,55.15523326949473
1.85,-0.05209884490090482,-0.0008007219696996819,54.96445269934858
1.86,-0.06369930085744543,0.05653518538695385,54.8186735261472
1.87,-0.03294364360611889,0.054786240032083496,54.7400795371169
1.88,-0.03816591292463273,0.12137259330184652,54.8408573133735
1.89,-0.0051190624149858935,0.13468986395579913,55.24460224089209
1.9,0.006502034922260308,0.22847969256456976,56.153503694678065
1.91,0.04361523743090804,0.24875060137644064,57.88130380836047
1.92,0.05232590008866629,0.3280852912690539,60.63082577943687
1.93,0.08654930929853166,0.32113165311113556,64.26579777208859
1.94,0.08828318527780107,0.3819233079159667,68.02436515071538
1.95,0.11670636650939614,0.3321310443791154,71.18840703167743
1.96,0.11206205585063878,0.31070119587425815,73.61214424177336
1.97,0.09872772391482874,0.19491258472952783,75.3735369475413
1.98,0.04477115475042098,0.13180305053872396,76.48462777633266
1.99,0.025636594836340645,0.031059583772035028,77.02337689468557
2.0,-0.021921146309334755,0.009039729605293777,77.02337689468557
2.01,-0.03992043028460773,-0.06795600927056511,76.6975921337051
2.02,-0.0683436115162028,-0.050592985506550954,76.1930694299299
2.03,-0.06136682483771396,-0.09111373149951117,75.59791010977298
2.04,-0.0781895501127684,-0.06563812988459235,74.91401564071087
2.05,-0.061965424878176016,-0.09343161088548393,74.1844859522118
2.06,-0.07703363279325547,-0.055797678309598885,73.46636506857199
2.07,-0.061965424878176016,-0.09518055624035429,72.79324558187693
2.08,-0.07645567413349899,-0.06447919019160596,72.19872008421218
2.09,-0.06369930085744543,-0.0963184243025591,71.65997096585927
2.1,-0.07936610881298693,-0.05522874427849648,71.1326306523656
2.11,-0.06021090751820101,-0.08763691242055202,70.57169774678638
2.12,-0.07587771547374252,-0.05752555203368767,69.94294583454393
2.13,-0.05209884490090482,-0.08706797838944962,69.23623375576335
2.14,-0.05905499019868807,-0.051751925199537335,68.40592629100767
2.15,-0.04514269960312157,-0.088226918082436,67.44124845790988
2.16,-0.06021090751820101,-0.05116191953765336,66.42016042300806
2.17,-0.053254762220417765,-0.08531903303457926,65.41048119296548
2.18,-0.07472179815422958,-0.06275131646751718,64.49017093432026
2.19,-0.06369930085744543,-0.09518055624035429,63.67127227442384
2.2,-0.07472179815422958,-0.06447919019160596,63.031745379814325
2.21,-0.061965424878176016,-0.0940216165473679,62.59377403771801
2.22,-0.07936610881298693,-0.06447919019160596,62.335808283400794
2.23,-0.0665890941562278,-0.09806736965742946,62.257214294370485
2.24,-0.08167794345201282,-0.061002371112646815,62.335808283400794
2.25,-0.07123340481498515,-0.10327206246047739,62.50440506632064
2.26,-0.08167794345201282,-0.06563812988459235,62.71736942369309
2.27,-0.06601113549647132,-0.09286267685438153,62.998152787728785
2.28,-0.08456773675079518,-0.07084282268764028,63.30111993899078
2.29,-0.06949952883571574,-0.10095418307450463,63.581269480534296
2.3,-0.08456773675079518,-0.0673870752394627,63.78345885553968
2.31,-0.07296728079425457,-0.09518055624035429,63.884236631796284
2.32,-0.09270044074879696,-0.05638768397148286,63.873461649429224
2.33,-0.06369930085744543,-0.06391025616050355,63.760641245821205
2.34,-0.05556659685944365,-0.008892228189822783,63.525493101222466
2.35,-0.02831997432806712,-0.0019596616626860637,63.22252594996047
2.36,-0.01032069035279414,0.045535794118974016,62.89674118898
2.37,-0.01380908369203856,-0.00021071630781570577,62.57159025049172
2.38,-0.06427725951720191,0.0067429218501025845,62.21284671991789
2.39,-0.06601113549647132,-0.036116775159611966,61.84206056199265
2.4,-0.07065544615522869,-0.050592985506550954,61.449724439333295
2.41,-0.07065544615522869,-0.10386206812236137,61.02316190209623
2.42,-0.10023454470633669,-0.07722752681445616,60.59659936485915
2.43,-0.07936610881298693,-0.11079463464949808,60.159261845255024
2.44,-0.08921204740955255,-0.08243221961750409,59.721924325650896
2.45,-0.07181136347474162,-0.11311251403547085,59.35113816772565
2.46,-0.08052202613249988,-0.08359115931049048,58.970210849925536
2.47,-0.0723893221344981,-0.11138464031138207,58.532239507829225
2.48,-0.09443431672806639,-0.09518055624035429,58.139903385169866
2.49,-0.15999134184901476,-0.15481327135219902,57.83693623390788
2.5,-0.006852938394255309,0.12541834641190808,57.556152869872186
2.51,0.4612729346277813,0.5730008558432487,57.28677831069572
2.52,0.895154757059247,0.8862306474112953,57.04022136123775
2.53,0.7599949961990549,0.24818166734533825,56.849440791091595
2.54,0.23271092607480226,-0.2092412936609958,56.70366161789022
2.55,0.07899456396028635,-0.13454236254032811,56.54647363982961
2.56,0.0001032069035279414,-0.07375070773549701,56.37787685690975
2.57,-0.0387438715843892,-0.07027388865653787,56.24350648856761
2.58,-0.0741438394944731,-0.05000297984466698,56.108502297733295
2.59,-0.0741438394944731,-0.07375070773549701,55.929130532446386
2.6,-0.09734475140755433,-0.03959359423857111,55.761167572018714
2.61,-0.07994406747274341,-0.05927449738855803,55.603979593958094
2.62,-0.08979000606930902,-0.02568631792273453,55.45820042075672
2.63,-0.07123340481498515,-0.04943404581356457,55.33460503478164
2.64,-0.08805613009003961,-0.007164354465733996,55.13241565977625
2.65,-0.0723893221344981,-0.02743526327760489,54.885858710318274
2.66,-0.07587771547374252,0.014834428070225685,54.66148554808659
2.67,-0.06312134219768896,-0.0031186013556724454,54.44852119071414
2.68,-0.07296728079425457,0.036833210606185364,54.25774062056799
2.69,-0.05209884490090482,0.03742321626806934,54.08914383764814
2.7,-0.0584770315389316,0.08662547414303663,53.921180877220465
2.71,-0.0346981609660939,0.09301017826985253,53.78617668638615
2.72,-0.03758795426487626,0.1561197124606564,53.86477067541646
2.73,-0.01032069035279414,0.17984636872070486,54.31351699987982
2.74,-0.0051190624149858935,0.2493406070383246,55.256011045751336
2.75,0.03608113347336831,0.2794308957944074,56.905217170403425
2.76,0.041303402791882146,0.33444892376508817,59.50832614578627
2.77,0.06914862536372074,0.3350178577961906,62.998152787728785
2.78,0.07957252262004282,0.3686060372620141,66.79031275844112
2.79,0.10975022121161289,0.30781438245718296,70.08935883023749
2.8,0.09639524789509726,0.2580221189203317,72.52387102270048
2.81,0.06797206666350221,0.1520528877198133,74.1280757504078
2.82,0.025058636176584173,0.09473805199394131,75.048386009053
2.83,0.002435682923259417,0.01831124714918483,75.40712953962684
2.84,-0.044544099562659506,-0.015276932316638668,75.351353160315
2.85,-0.044544099562659506,-0.0540698045855101,75.03697720419378
2.86,-0.07065544615522869,-0.04248040765564628,74.49886190833304
2.87,-0.061965424878176016,-0.07200176238062665,73.78074102469321
2.88,-0.07181136347474162,-0.05000297984466698,72.97261734716385
2.89,-0.05674315555966218,-0.0749096474284834,72.12012609518187
2.9,-0.0741438394944731,-0.0540698045855101,71.31200241765251
2.91,-0.05556659685944365,-0.07259176804251063,70.57169774678638
2.92,-0.051520886241148346,-0.04827510612057819,69.8871694552321
2.93,-0.042810223583390095,-0.06911494896355148,69.24764256062258
2.94,-0.05441067953993071,-0.046526160765707834,68.6195244708723
2.95,-0.03992043028460773,-0.06447919019160596,67.96858877140355
2.96,-0.050344327540929816,-0.04536722107272145,67.2168752956782
2.97,-0.04803249290190393,-0.06622813554647632,66.37515902606329
2.98,-0.05441067953993071,-0.034957835466625585,65.46625757227731
2.99,-0.03816591292463273,-0.04943404581356457,64.54658113612427
3.0,-0.050344327540929816,-0.03320889011175523,63.626270877479065
3.01,-0.05209884490090482,-0.06447919019160596,62.78455460786416
3.02,-0.07007748749547221,-0.04191147362454387,61.629096204620204
3.03,-0.06543317683671485,-0.06506919585348994,60.54082298554732
3.04,-0.07529975681398604,-0.0413214679626599,60.06925905136548
3.05,-0.07065544615522869,-0.07431964176659943,59.957072470249635
3.06,-0.0822559021117693,-0.050592985506550954,60.09207666108396
3.07,-0.0723893221344981,-0.0749096474284834,60.26003962151163
3.08,-0.0781895501127684,-0.055797678309598885,60.473637801376256
3.09,-0.07529975681398604,-0.08590903869646324,60.74301236055271
3.1,-0.08921204740955255,-0.06447919019160596,61.07957210390023
3.11,-0.07123340481498515,-0.08416009334159288,61.404723042388525
3.12,-0.07007748749547221,-0.06043343708154441,61.68550640642422
3.13,-0.06892157017595926,-0.0754785814595858,61.9098795686559
3.14,-0.07123340481498515,-0.039003588576687134,62.122843926028345
3.15,-0.02889793298782359,-0.023958444198645745,62.19002911019942
3.16,-0.025987498308335646,0.020060192504055187,62.13425273088759
3.17,-0.01845339435079592,0.0067429218501025845,61.97706475282697
3.18,-0.002208627735497946,0.04205897504001487,61.74128278573605
3.19,-0.050344327540929816,-0.004846475079761233,61.46113324419253
3.2,-0.06892157017595926,-0.0031186013556724454,61.15816609293054
3.21,-0.07007748749547221,-0.047685100458694216,60.81019754472378
3.22,-0.08805613009003961,-0.05347979892362612,60.41722759957224
3.23,-0.07761159145301194,-0.09170373716139514,60.00207386719441
3.24,-0.09385635806830991,-0.07200176238062665,59.58692013481657
3.25,-0.08456773675079518,-0.09806736965742946,59.18317520729798
3.26,-0.09327839940855344,-0.07838646650744255,58.79020526214644
3.27,-0.08456773675079518,-0.09979524338151825,58.42005292671338
3.28,-0.08690021277052666,-0.08070434589341531,58.08349318336586
3.29,-0.08516633679125725,-0.10211312276749102,57.74693344001833
3.3,-0.17159179780555536,-0.13281448881623933,57.398964891811566
3.31,-0.13041224329790677,-0.05347979892362612,57.09599774054958
3.32,0.22633273943677548,0.34428937534008164,56.83803198623236
3.33,0.7211272763304322,0.7345359774147687,56.591475036774376
3.34,0.9346004355876262,0.6071579693401746,56.310691672738685
3.35,0.4235611320786715,-0.08763691242055202,56.07490970564776
3.36,0.12599498782691088,-0.1426549403912328,55.90694674522009
3.37,0.05579365204720512,-0.10502100781534775,55.74975876715947
3.38,-0.041076347604120676,-0.05811555769557165,55.57038700187256
3.39,-0.05963294885844454,-0.07722752681445616,55.39101523658565
3.4,-0.07065544615522869,-0.050592985506550954,55.18882586158026
3.41,-0.07356588083471663,-0.06679706957757872,54.930860107263044
3.42,-0.08632225411077019,-0.040162528269673516,54.71726192739842
3.43,-0.08052202613249988,-0.06391025616050355,54.59430036391552
3.44,-0.09038860610977108,-0.030912082356564036,54.48211378279968
3.45,-0.07472179815422958,-0.047685100458694216,54.31351699987982
3.46,-0.07123340481498515,-0.008892228189822783,54.111327624874434
3.47,-0.0665890941562278,-0.023958444198645745,53.89836326750199
3.48,-0.0683436115162028,0.010198669298280158,53.70758269735584
3.49,-0.06369930085744543,0.0021071630781570577,53.52821093206893
3.5,-0.06312134219768896,0.044376854425987634,53.359614149149074
3.51,-0.05441067953993071,0.04494578845709004,53.22524378080694
3.52,-0.05209884490090482,0.08953335919089338,53.203059993580645
3.53,-0.04223226492363362,0.10689638295490753,53.31524657469649
3.54,-0.023675663669309756,0.16652909806675226,53.65180631804401
3.55,0.004169558902528832,0.20011727753257577,54.3585183968246
3.56,0.028526388135123003,0.2724983292672707,55.637572186043634
3.57,0.041303402791882146,0.2834977205352505,57.780526032103865
3.58,0.05579365204720512,0.3350178577961906,60.98956931001069
3.59,0.07088250134299015,0.3246084721900947,64.79313808558226
3.6,0.08306091595928725,0.33154103871723145,68.35014991169585
3.61,0.07726068798101693,0.2493406070383246,71.07622045056159
3.62,0.056371610706961596,0.1914357656505687,72.9612085423046
3.63,0.03085886415485448,0.08837441949790699,74.09448315832226
3.64,-0.006852938394255309,0.0472636678430628,74.63323227667517
3.65,-0.037009995605119785,-0.02743526327760489,74.71182626570548
3.66,-0.0584770315389316,-0.03148101638766644,74.45386051138827
3.67,-0.07007748749547221,-0.06795600927056511,73.98229657720643
3.68,-0.07645567413349899,-0.05232085923063974,73.38777107954168
3.69,-0.0781895501127684,-0.08359115931049048,72.72606039770587
3.7,-0.09212248208904049,-0.06679706957757872,71.98512190434757
3.71,-0.07703363279325547,-0.08938585777542238,71.2112246413959
3.72,-0.07994406747274341,-0.06275131646751718,70.45951116567055
3.73,-0.08109998479225636,-0.08938585777542238,69.80857546620179
3.74,-0.07994406747274341,-0.06332025049861958,69.21404996853705
3.75,-0.07587771547374252,-0.0830011536486065,68.60811566601306
3.76,-0.07296728079425457,-0.055797678309598885,68.01359016834832
3.77,-0.07529975681398604,-0.08011434023153133,67.38483825610587
3.78,-0.07645567413349899,-0.05291086489252372,66.65594239009899
3.79,-0.07065544615522869,-0.07431964176659943,65.7692247235393
3.8,-0.07007748749547221,-0.05347979892362612,64.86032326975332
3.81,-0.07181136347474162,-0.0754785814595858,63.962830620826594
3.82,-0.08109998479225636,-0.05116191953765336,63.12111435121169
3.83,-0.08283386077152577,-0.0830011536486065,62.30221569131526
3.84,-0.09212248208904049,-0.061002371112646815,61.573319825308374
3.85,-0.08516633679125725,-0.08879585211353841,61.02316190209623
3.86,-0.08863408874979607,-0.07143282834952425,60.61941697457763
3.87,-0.09385635806830991,-0.0963184243025591,60.33863361054193
3.88,-0.08979000606930902,-0.06970495462543547,60.26003962151163
3.89,-0.09385635806830991,-0.10443100215346378,60.372226202627466
3.9,-0.0979227100673108,-0.07663752115257219,60.59659936485915
3.91,-0.09559023404757933,-0.10095418307450463,60.87738272889485
3.92,-0.09850066872706728,-0.07606858712146979,61.15816609293054
3.93,-0.09270044074879696,-0.10211312276749102,61.42690682961482
3.94,-0.09676679274779786,-0.07027388865653787,61.662688796705744
3.95,-0.0979227100673108,-0.08186328558640169,61.83128557962559
3.96,-0.07356588083471663,-0.034957835466625585,61.89847076379667
3.97,-0.060788866177957486,-0.02743526327760489,61.88706195893742
3.98,-0.06949952883571574,0.009039729605293777,61.80846796990712
3.99,-0.01845339435079592,0.013106554346136898,61.629096204620204
4.0,-0.05556659685944365,0.005583982157116202,61.35972164544375
4.01,-0.08398977809103872,-0.03552676949772799,61.05675449418176
4.02,-0.10314497938582463,-0.03148101638766644,60.731603555693475
4.03,-0.10256702072606816,-0.09170373716139514,60.395043812345946
4.04,-0.10430089670533758,-0.08243221961750409,60.01348267205365
4.05,-0.10661273134436347,-0.11890721250040276,59.59832893967582
4.06,-0.10836724870433848,-0.0957494902714567,59.19458401215722
4.07,-0.10719069000411995,-0.12411190530345069,58.80161406700568
4.08,-0.1118350006628773,-0.10038524904340222,58.408644121854145
4.09,-0.09734475140755433,-0.12874766407539623,58.04990059128032
4.1,-0.10836724870433848,-0.10327206246047739,57.7133408479328
4.11,-0.1495468032119871,-0.16638159665128127,57.421782501530046
4.12,-0.19826046167717543,-0.11890721250040276,57.11881535026805
4.13,0.06739410800374573,0.19838940380848696,56.82662318137312
4.14,0.5279652356875371,0.7241055201778913,56.52365603011113
4.15,0.9009549850375173,0.8306436854095121,56.232097683708375
4.16,0.5430540849833221,0.13816668303475826,55.974131929391156
4.17,0.1213506771681535,-0.18201674669120663,55.738349962300234
4.18,0.02737047081561006,-0.09863630368853187,55.58116198423962
4.19,-0.05383272088017423,-0.1090667609254093,55.44679161589748
4.2,-0.08341181943128224,-0.07895540053854495,55.31242124755534
4.21,-0.10661273134436347,-0.10617994750833414,55.13241565977625
4.22,-0.10952316602385141,-0.07954540620042892,54.941635089630104
4.23,-0.11416747668260878,-0.09111373149951117,54.77367212920243
4.24,-0.10661273134436347,-0.06447919019160596,54.58289155905628
4.25,-0.10719069000411995,-0.08070434589341531,54.39211098891013
4.26,-0.1019890620663117,-0.05000297984466698,54.21273922362322
4.27,-0.09676679274779786,-0.06159237677453079,53.99914104375859
4.28,-0.09038860610977108,-0.03032207669468006,53.77476788152691
4.29,-0.08632225411077019,-0.03784464888370075,53.53961973692817
4.3,-0.07123340481498515,0.0049939764952322266,53.34883916678202
4.31,-0.0683436115162028,-0.0031186013556724454,53.2138349759477
4.32,-0.07065544615522869,0.03742321626806934,53.14664979177663
4.33,-0.0584770315389316,0.04205897504001487,53.203059993580645
4.34,-0.04976636888117334,0.09821487107290046,53.359614149149074
4.35,-0.019609311670308865,0.12137259330184652,53.71899150221508
4.36,-0.008586814373524725,0.19200469968167108,54.44852119071414
4.37,0.023304118816609168,0.2186392409895763,55.85053654341608
4.38,0.03897092677215067,0.278861961763305,58.26286494865277
4.39,0.06855002532325868,0.2985428649132919,61.864878171711126
4.4,0.0877052266180446,0.345448315033068,65.96000529368546
4.41,0.10219547587336758,0.3147680206151013,69.5842023039701
4.42,0.10277343453312404,0.29158922675537363,72.20949506657925
4.43,0.0778386466407734,0.19200469968167108,73.93729518026164
4.44,0.041303402791882146,0.1225315329948329,74.94760823279641
4.45,0.0053254762220417765,0.029900644079048647,75.38494575240054
4.46,-0.030053850307336535,-0.007164354465733996,75.38494575240054
4.47,-0.054988638199687176,-0.06275131646751718,75.14916378530961
4.48,-0.07123340481498515,-0.05868449172667405,74.71182626570548
4.49,-0.07994406747274341,-0.0940216165473679,74.1623021649855
4.5,-0.08456773675079518,-0.0749096474284834,73.49995766065751
4.51,-0.08398977809103872,-0.0957494902714567,72.82683817396247
4.52,-0.08747817143028314,-0.07431964176659943,72.20949506657925
4.53,-0.08690021277052666,-0.09518055624035429,71.58137697682896
4.54,-0.09096656476952755,-0.07779646084555857,70.99762646153128
4.55,-0.0741438394944731,-0.09747736399554549,70.4702861480376
4.56,-0.08109998479225636,-0.07663752115257219,70.01076484120718
4.57,-0.06543317683671485,-0.09459055057847032,69.53920090702533
4.58,-0.07065544615522869,-0.07431964176659943,69.0232693983909
4.59,-0.06427725951720191,-0.09054479746840877,68.41733509586692
4.6,-0.07123340481498515,-0.07027388865653787,67.6770304250008
4.61,-0.057899072879175124,-0.08647797272756565,66.74531136149635
4.62,-0.06776565285644633,-0.07259176804251063,65.80281731562484
4.63,-0.0665890941562278,-0.09111373149951117,64.87173207461257
4.64,-0.06949952883571574,-0.0749096474284834,63.99642321291213
4.65,-0.07761159145301194,-0.09979524338151825,63.18893335787494
4.66,-0.08456773675079518,-0.08590903869646324,62.52658885354694
4.67,-0.07645567413349899,-0.10502100781534775,62.04424993699804
4.68,-0.08979000606930902,-0.09227267119249755,61.72987398087681
4.69,-0.09096656476952755,-0.11079463464949808,61.56191102044914
4.7,-0.09270044074879696,-0.0957494902714567,61.5505022155899
4.71,-0.08805613009003961,-0.11486145939034122,61.67409760156498
4.72,-0.09734475140755433,-0.09863630368853187,61.864878171711126
4.73,-0.08979000606930902,-0.11079463464949808,62.156436518113885
4.74,-0.09618883408804138,-0.10038524904340222,62.44799486451664
4.75,-0.08341181943128224,-0.10733888720132051,62.65018423952203
4.76,-0.10139046202584963,-0.08647797272756565,62.84096480966817
4.77,-0.07936610881298693,-0.08938585777542238,62.98674398286955
4.78,-0.056144555519200126,-0.04420828137973507,63.031745379814325
4.79,-0.03294364360611889,-0.03148101638766644,62.953151390784015
4.8,-0.04572065826287804,-0.009482233851706759,62.78455460786416
4.81,-0.002208627735497946,0.0067429218501025845,62.56018144563248
4.82,-0.06601113549647132,-0.015276932316638668,62.24643931200343
4.83,-0.06892157017595926,-0.05232085923063974,61.9320633558822
4.84,-0.08747817143028314,-0.05927449738855803,61.5505022155899
4.85,-0.08456773675079518,-0.1084978268943069,61.191758685016076
4.86,-0.10023454470633669,-0.11138464031138207,60.82097252709084
4.87,-0.11067908334336436,-0.1299066037683826,60.41722759957224
4.88,-0.10719069000411995,-0.12411190530345069,60.01348267205365
4.89,-0.10139046202584963,-0.13511129657143053,59.643330336620586
4.9,-0.1118350006628773,-0.12642978468942345,59.228176604242755
4.91,-0.09559023404757933,-0.13974705534337606,58.80161406700568
4.92,-0.11125704200312084,-0.13397342850922572,58.397869139487085
4.93,-0.18608204706087836,-0.2126970411091734,58.04990059128032
4.94,-0.12054566332063556,-0.06970495462543547,57.75834224487757
4.95,0.2518661273695882,0.3819233079159667,57.48896768570111
4.96,0.6990822817368639,0.879277009253377,57.231001931383894
4.97,0.8522206851916233,0.645950841609046,56.973036177066675
4.98,0.3005797858347765,-0.088226918082436,56.770846802061286
4.99,0.07261637732225958,-0.1559722110451854,56.591475036774376
5.0,0.019836366858070338,-0.11022570061839568,56.42287825385453
5.01,-0.0584770315389316,-0.11138464031138207,56.254915293426855
5.02,-0.09212248208904049,-0.10327206246047739,56.097727315366235
5.03,-0.10023454470633669,-0.12065615785527312,55.918355550079326
5.04,-0.10894520736409495,-0.10154418873638861,55.74975876715947
5.05,-0.10661273134436347,-0.10502100781534775,55.57038700187256
5.06,-0.11590135266187819,-0.08647797272756565,55.41319902381195
5.07,-0.09907862738682374,-0.08763691242055202,55.23382725852504
5.08,-0.09038860610977108,-0.06275131646751718,54.99804529143412
5.09,-0.08863408874979607,-0.07027388865653787,54.7400795371169
5.1,-0.08921204740955255,-0.04595722673460543,54.52648135725227
5.11,-0.08456773675079518,-0.04075253393155749,54.3363346095983
5.12,-0.07529975681398604,-0.014686926654754691,54.179146631537684
5.13,-0.06543317683671485,-0.007164354465733996,54.04414244070337
5.14,-0.06136682483771396,0.03335639152722622,53.94336466444676
5.15,-0.03992043028460773,0.04667366218117883,53.94336466444676
5.16,-0.026565456968092118,0.09821487107290046,54.12273642973368
5.17,-0.0033645450550108895,0.13296199023171035,54.65007674322735
5.18,0.0018577242635029452,0.19316363937465747,55.72757497993317
5.19,0.043037278771151564,0.23254651730541287,57.62333805404325
5.2,0.0662381906842328,0.28870241333829844,60.59659936485915
5.21,0.08248295729953077,0.31070119587425815,64.49017093432026
5.22,0.09697320655485374,0.3338589181032042,68.39515130864062
5.23,0.11497249053012672,0.30490649740932624,71.56996817196973
5.24,0.105683869212612,0.25627317356546137,73.81433361677875
5.25,0.08943910259731402,0.16132440526370434,75.23916657919916
5.26,0.041303402791882146,0.07910290195401594,75.96869626769822
5.27,-0.0051190624149858935,0.002676097109259463,76.18166062507066
5.28,-0.03294364360611889,-0.03668570919071437,76.02447264701006
5.29,-0.050344327540929816,-0.07316070207361304,75.6321365243507
5.3,-0.07007748749547221,-0.07895540053854495,75.10479621085702
5.31,-0.07761159145301194,-0.09518055624035429,74.5096368907001
5.32,-0.0822559021117693,-0.09286267685438153,73.88151880094982
5.33,-0.08574429545101371,-0.10038524904340222,73.23058310148106
5.34,-0.08747817143028314,-0.09170373716139514,72.62464879895708
5.35,-0.07703363279325547,-0.10095418307450463,72.0751246982371
5.36,-0.0822559021117693,-0.09054479746840877,71.55919318960267
5.37,-0.07472179815422958,-0.09863630368853187,71.06544546819453
5.38,-0.07181136347474162,-0.09170373716139514,70.57169774678638
5.39,-0.08283386077152577,-0.09979524338151825,70.11154261746378
5.4,-0.07123340481498515,-0.08590903869646324,69.5842023039701
5.41,-0.06776565285644633,-0.09286267685438153,68.89967401241582
5.42,-0.06716705281598427,-0.08186328558640169,68.09218415737863
5.43,-0.07356588083471663,-0.0957494902714567,67.17187389873341
5.44,-0.07529975681398604,-0.088226918082436,66.21797104800267
5.45,-0.0683436115162028,-0.09518055624035429,65.2868858069904
5.46,-0.08516633679125725,-0.0940216165473679,64.44516953737549
5.47,-0.07761159145301194,-0.10617994750833414,63.71627367136861
5.48,-0.08341181943128224,-0.09690842996444309,63.132523156070924
5.49,-0.08632225411077019,-0.10674888153943654,62.72877822855233
5.5,-0.08574429545101371,-0.10095418307450463,62.48158745660217
5.51,-0.08747817143028314,-0.11370251969735483,62.414402272431104
5.52,-0.08052202613249988,-0.10095418307450463,62.43721988214958
5.53,-0.08747817143028314,-0.11427145372845723,62.156436518113885
5.54,-0.09270044074879696,-0.1090667609254093,62.06643372422434
5.55,-0.09154452342928403,-0.11717933877631398,62.39221848520481
5.56,-0.09618883408804138,-0.11022570061839568,62.874557401753705
5.57,-0.08398977809103872,-0.11311251403547085,63.256118542046
5.58,-0.08052202613249988,-0.0957494902714567,63.446899112192156
5.59,-0.0741438394944731,-0.08938585777542238,63.48049170427769
5.6,-0.04338818224314656,-0.0540698045855101,63.39048891038814
5.61,-0.02772137428760506,-0.030912082356564036,63.24470973718677
5.62,-0.026565456968092118,-0.017594811702611433,63.031745379814325
5.63,-0.002786586395254418,0.004425042464129821,62.80737221758264
5.64,-0.0665890941562278,-0.02743526327760489,62.44799486451664
5.65,-0.07936610881298693,-0.056956618002585266,62.06643372422434
5.66,-0.07876750877252488,-0.06854601493244908,61.71909899850975
5.67,-0.08632225411077019,-0.11254358000436844,61.35972164544375
5.68,-0.09270044074879696,-0.11717933877631398,60.955976717925154
5.69,-0.10139046202584963,-0.13106554346136898,60.518639198321026
5.7,-0.10430089670533758,-0.1281787300442938,60.06925905136548
5.71,-0.0979227100673108,-0.13338342284734175,59.643330336620586
5.72,-0.10023454470633669,-0.12586085065832106,59.25036039146905
5.73,-0.10661273134436347,-0.1374291759574033,58.86879925117675
5.74,-0.10023454470633669,-0.13338342284734175,58.476463128517395
5.75,-0.17448159110433772,-0.20460553488905028,58.16208717239616
5.76,-0.10487885536509406,-0.06563812988459235,57.904121418078944
5.77,0.25068956866936964,0.39928633167998084,57.646155663761725
5.78,0.7170815657121369,0.9065015562231662,57.4103736966708
5.79,0.8325081666177865,0.6517455400739779,57.19740933929836
5.8,0.2994238685152636,-0.09806736965742946,57.01740375151927
5.81,0.07261637732225958,-0.14842856722538314,56.88303338317713
5.82,0.026214553496097116,-0.10617994750833414,56.74866301483499
5.83,-0.04803249290190393,-0.09806736965742946,56.61365882400067
5.84,-0.06369930085744543,-0.088226918082436,56.45647084594006
5.85,-0.07761159145301194,-0.09806736965742946,56.27709908065315
5.86,-0.08805613009003961,-0.08531903303457926,56.11991110259253
5.87,-0.08167794345201282,-0.08706797838944962,55.94053933730562
5.88,-0.08863408874979607,-0.0749096474284834,55.7047573702147
5.89,-0.08341181943128224,-0.07375070773549701,55.480384207983015
5.9,-0.08109998479225636,-0.05868449172667405,55.28960363783687
5.91,-0.07876750877252488,-0.05868449172667405,55.07663928046442
5.92,-0.0723893221344981,-0.03784464888370075,54.852266118232734
5.93,-0.07296728079425457,-0.03436782980474161,54.66148554808659
5.94,-0.05963294885844454,-0.009482233851706759,54.51570637488521
5.95,-0.060788866177957486,0.0049939764952322266,54.3585183968246
5.96,-0.0486104515616604,0.036833210606185364,54.179146631537684
5.97,-0.04165430626387715,0.05942199880402903,54.10055264250738
5.98,-0.02772137428760506,0.11153214172685307,54.24633181570876
5.99,-0.012075207712769143,0.14048456242073104,54.71726192739842
6.0,0.012302262900530615,0.20648091002861008,55.65975597326993
6.01,0.036659092133124786,0.2452737822974815,57.3539634948668
6.02,0.0621718386852319,0.2997018046062783,60.06925905136548
6.03,0.07957252262004282,0.3246084721900947,63.6598634695646
6.04,0.09872772391482874,0.34717618875715683,67.40765586582434
6.05,0.11090613853112583,0.3176548340321764,70.56028894192715
6.06,0.0998836412343417,0.2655446911093524,72.91684096785201
6.07,0.08421683327880018,0.17291380219356814,74.46463549375532
6.08,0.050571382728691286,0.09010229322199578,75.31776056822946
6.09,0.008813869561286197,0.008470795574191371,75.67650409880329
6.1,-0.025987498308335646,-0.03436782980474161,75.66572911643622
6.11,-0.05094292758139188,-0.07259176804251063,75.42994714934531
6.12,-0.06021090751820101,-0.08359115931049048,75.03697720419378
6.13,-0.07007748749547221,-0.09459055057847032,74.47604429861457
6.14,-0.06949952883571574,-0.08531903303457926,73.8251085991458
6.15,-0.07472179815422958,-0.09922630935041585,73.16339791731
6.16,-0.06892157017595926,-0.08938585777542238,72.53527982755972
6.17,-0.07472179815422958,-0.10038524904340222,71.9743469219805
6.18,-0.06312134219768896,-0.08706797838944962,71.43559780362759
6.19,-0.06427725951720191,-0.10386206812236137,70.94185008221945
6.2,-0.054988638199687176,-0.08359115931049048,70.49310375775609
6.21,-0.06254338353793248,-0.09922630935041585,70.03294862843347
6.22,-0.050344327540929816,-0.08359115931049048,69.4270143259095
6.23,-0.051520886241148346,-0.09227267119249755,68.65311706295783
6.24,-0.04514269960312157,-0.07954540620042892,67.71062301708633
6.25,-0.05905499019868807,-0.09806736965742946,66.68953498218451
6.26,-0.050344327540929816,-0.07954540620042892,65.690630734509
6.27,-0.06312134219768896,-0.09054479746840877,64.77095429835596
6.28,-0.051520886241148346,-0.08127327992451772,63.962830620826594
6.29,-0.06427725951720191,-0.09343161088548393,63.30111993899078
6.3,-0.06254338353793248,-0.088226918082436,62.78455460786416
6.31,-0.06776565285644633,-0.10038524904340222,62.43721988214958
6.32,-0.07181136347474162,-0.0940216165473679,62.280031904088965
6.33,-0.07994406747274341,-0.10327206246047739,62.26862309922972
6.34,-0.07529975681398604,-0.0940216165473679,62.40299346757186
6.35,-0.07936610881298693,-0.10154418873638861,62.65018423952203
6.36,-0.07876750877252488,-0.09170373716139514,62.953151390784015
6.37,-0.07587771547374252,-0.09863630368853187,63.2783023292723
6.38,-0.07936610881298693,-0.09286267685438153,63.59267828539353
6.39,-0.09096656476952755,-0.09170373716139514,63.760641245821205
6.4,-0.07181136347474162,-0.05868449172667405,63.79486766039892
6.41,-0.04338818224314656,-0.03436782980474161,63.79486766039892
6.42,-0.04572065826287804,-0.0008007219696996819,63.72704865373567
6.43,-0.016719518371526507,0.007880789912307395,63.59267828539353
6.44,-0.023097705009553285,0.0032661027711434394,63.41330652010662
6.45,-0.07181136347474162,-0.03263995608065282,63.155340765789404
6.46,-0.06949952883571574,-0.03668570919071437,62.8181471999497
6.47,-0.08341181943128224,-0.08879585211353841,62.459403669375874
6.48,-0.08979000606930902,-0.09863630368853187,62.077842529083576
6.49,-0.09559023404757933,-0.12122509188637552,61.71909899850975
6.5,-0.10314497938582463,-0.11658933311443,61.30394526613192
6.51,-0.09907862738682374,-0.12006615219338915,60.855198941668554
6.52,-0.09096656476952755,-0.11486145939034122,60.48441278374331
6.53,-0.08863408874979607,-0.1281787300442938,60.12566925316949
6.54,-0.08341181943128224,-0.11138464031138207,59.75551691773643
6.55,-0.10372293804558111,-0.13049660943026659,59.362546972584894
6.56,-0.1907263577196357,-0.17217629511621318,59.00380344201107
6.57,-0.05674315555966218,0.02815169872417829,58.68942748588984
6.58,0.38238157757102287,0.4954151113055058,58.408644121854145
6.59,0.8522206851916233,0.8416430766774919,58.150678367536926
6.6,0.7936404467491638,0.35065300783611597,57.91553022293819
6.61,0.2663563766249112,-0.23180901022805792,57.70193204307356
6.62,0.06972658402347721,-0.14670069350129436,57.53396908264589
6.63,0.00707999358201678,-0.11717933877631398,57.398964891811566
6.64,-0.046876575582390986,-0.08243221961750409,57.241776913750954
6.65,-0.06949952883571574,-0.10038524904340222,57.07381395332328
6.66,-0.08456773675079518,-0.08359115931049048,56.905217170403425
6.67,-0.08863408874979607,-0.08938585777542238,56.73725420997575
6.68,-0.09734475140755433,-0.07954540620042892,56.52365603011113
6.69,-0.09618883408804138,-0.08070434589341531,56.33350928245716
6.7,-0.08456773675079518,-0.056956618002585266,56.176321304396545
6.71,-0.09385635806830991,-0.06970495462543547,56.00772452147669
6.72,-0.08456773675079518,-0.04711616642759181,55.81694395133054
6.73,-0.07936610881298693,-0.043639347348632666,55.59257078909886
6.74,-0.07356588083471663,-0.022799504505659363,55.379606431726415
6.75,-0.07065544615522869,-0.012369047268781928,55.18882586158026
6.76,-0.06369930085744543,0.012516548684252922,55.04304668837889
6.77,-0.06485521817695837,0.033946397189110196,54.95304389448934
6.78,-0.056144555519200126,0.07330820348908404,54.90804249754457
6.79,-0.0486104515616604,0.10748638861679151,54.97586150420782
6.8,-0.016719518371526507,0.15727865215364278,55.256011045751336
6.81,-0.0016306690757414742,0.20300409094965094,56.00772452147669
6.82,0.02041432551782681,0.2510684807624134,57.4325574838971
6.83,0.03781500945263773,0.28117984114927774,59.777700704962726
6.84,0.0621718386852319,0.3147680206151013,63.031745379814325
6.85,0.06797206666350221,0.30490649740932624,66.64453358523974
6.86,0.09059501991682696,0.28813347930719607,69.87576065037287
6.87,0.07494885334199104,0.2041630306426373,72.28808905560955
6.88,0.05521569338744865,0.13180305053872396,73.97152159483936
6.89,0.012880221560287087,0.04321791473300125,74.99260962974118
6.9,-0.011497249053012672,-0.004846475079761233,75.41853834448607
6.91,-0.04803249290190393,-0.056956618002585266,75.39635455725977
6.92,-0.060788866177957486,-0.07259176804251063,75.10479621085702
6.93,-0.07876750877252488,-0.09690842996444309,74.66682486876071
6.94,-0.07356588083471663,-0.0957494902714567,74.08370817595521
6.95,-0.08805613009003961,-0.10038524904340222,73.38777107954168
6.96,-0.07703363279325547,-0.08995479180652478,72.74824418493216
6.97,-0.08109998479225636,-0.09459055057847032,72.10871729032264
6.98,-0.06949952883571574,-0.08938585777542238,71.50278298779865
6.99,-0.07587771547374252,-0.09690842996444309,70.89684868527468
7.0,-0.08341181943128224,-0.09286267685438153,70.2687305955244
7.01,-0.07529975681398604,-0.09343161088548393,69.68498008022671
7.02,-0.07587771547374252,-0.08531903303457926,69.07904577770273
7.03,-0.08516633679125725,-0.09343161088548393,68.40592629100767
7.04,-0.06427725951720191,-0.08359115931049048,67.63202902805602
7.05,-0.06776565285644633,-0.088226918082436,66.74531136149635
7.06,-0.06543317683671485,-0.07779646084555857,65.78063352839854
7.07,-0.07703363279325547,-0.08590903869646324,64.8045468904415
7.08,-0.0723893221344981,-0.0830011536486065,63.907054241514764
7.09,-0.07356588083471663,-0.08359115931049048,63.14393196093016
7.1,-0.07181136347474162,-0.08763691242055202,62.54940646326542
7.11,-0.0822559021117693,-0.08879585211353841,62.14502771325464
7.12,-0.0665890941562278,-0.08359115931049048,61.89847076379667
7.13,-0.07645567413349899,-0.09343161088548393,62.280031904088965
7.14,-0.07296728079425457,-0.09170373716139514,62.84096480966817
7.15,-0.09096656476952755,-0.10154418873638861,63.11033936884463
7.16,-0.07703363279325547,-0.0957494902714567,63.22252594996047
7.17,-0.09038860610977108,-0.09979524338151825,63.35689631830261
7.18,-0.07472179815422958,-0.09459055057847032,63.59267828539353
7.19,-0.08632225411077019,-0.09054479746840877,63.85064403971075
7.2,-0.07994406747274341,-0.07259176804251063,64.05283341471613
7.21,-0.05383272088017423,-0.04191147362454387,64.17579497819904
7.22,-0.024253622329066228,-0.010051167882809164,64.18720378305828
7.23,-0.0387438715843892,-0.006574348803850019,64.0636083970832
7.24,0.004169558902528832,0.011357608991266541,63.86205284456999
7.25,-0.05905499019868807,-0.017004806040727453,63.626270877479065
7.26,-0.05441067953993071,-0.03727571485259835,63.37971392802108
7.27,-0.07645567413349899,-0.06332025049861958,63.05392916704062
7.28,-0.07007748749547221,-0.08995479180652478,62.66159304438126
7.29,-0.09327839940855344,-0.10502100781534775,62.257214294370485
7.3,-0.08341181943128224,-0.11138464031138207,61.864878171711126
7.31,-0.08398977809103872,-0.11022570061839568,61.49472583627807
7.32,-0.08052202613249988,-0.11486145939034122,61.15816609293054
7.33,-0.08863408874979607,-0.11427145372845723,60.79878873986454
7.34,-0.07529975681398604,-0.11658933311443,60.395043812345946
7.35,-0.08690021277052666,-0.11543039342144362,60.024891476912885
7.36,-0.15012476187174356,-0.16813054200615163,59.66551412384688
7.37,-0.14141409921398532,-0.08243221961750409,59.35113816772565
7.38,0.20604226220318222,0.2962249855273192,59.01457842437813
7.39,0.6811036391422964,0.7426485552656734,58.72302007797538
7.4,0.9618676994997083,0.6471097813020323,58.52083070296999
7.41,0.44445020935272683,-0.056956618002585266,58.36427654740155
7.42,0.14744138238001708,-0.17160736108511077,58.1956797644817
7.43,0.05172730004820423,-0.11022570061839568,58.00489919433555
7.44,-0.0248315809888227,-0.0963184243025591,57.79193483696311
7.45,-0.05209884490090482,-0.0830011536486065,57.57897047959066
7.46,-0.053254762220417765,-0.088226918082436,57.4103736966708
7.47,-0.07181136347474162,-0.07606858712146979,57.241776913750954
7.48,-0.05556659685944365,-0.0754785814595858,57.04022136123775
7.49,-0.07296728079425457,-0.06506919585348994,56.849440791091595
7.5,-0.06427725951720191,-0.0673870752394627,56.65866022094545
7.51,-0.06254338353793248,-0.04943404581356457,56.45647084594006
7.52,-0.051520886241148346,-0.04479828704161905,56.232097683708375
7.53,-0.06136682483771396,-0.030912082356564036,56.00772452147669
7.54,-0.04572065826287804,-0.028004197308707294,55.80616896896348
7.55,-0.057321114219418656,-0.004846475079761233,55.61538839881734
7.56,-0.036432036945363316,-0.00021071630781570577,55.44679161589748
7.57,-0.041076347604120676,0.032787457496123815,55.31242124755534
7.58,-0.013231125032282088,0.057694125079940234,55.23382725852504
7.59,-0.02076522898982181,0.0958969916869277,55.301012442696106
7.6,0.0018577242635029452,0.13989455675884704,55.59257078909886
7.61,0.018102490878800923,0.19548151876063025,56.28850788551239
7.62,0.056371610706961596,0.24006908949443356,57.62333805404325
7.63,0.06855002532325868,0.28697453961420966,59.91270489579704
7.64,0.09177157861704549,0.30549650307121023,63.26752734690525
7.65,0.10219547587336758,0.3269263515760675,67.12687250178864
7.66,0.1253963877864488,0.3060654371023126,70.60529033887192
7.67,0.11844024248866555,0.25627317356546137,73.219808119114
7.68,0.10103955855385463,0.1619144109255883,74.92479062307793
7.69,0.050571382728691286,0.09185123857686614,75.9344698531205
7.7,0.016347973518825918,0.0067429218501025845,76.41744259216159
7.71,-0.015542959671307975,-0.02452737822974815,76.43962637938789
7.72,-0.024253622329066228,-0.06447919019160596,76.14806803298514
7.73,-0.04514269960312157,-0.06911494896355148,75.68791290366252
7.74,-0.05267680356066129,-0.09170373716139514,75.12697999808331
7.75,-0.06485521817695837,-0.0830011536486065,74.47604429861457
7.76,-0.04918841022141687,-0.09979524338151825,73.79151600706027
7.77,-0.051520886241148346,-0.0830011536486065,73.11839652036522
7.78,-0.04918841022141687,-0.10386206812236137,72.4788696257557
7.79,-0.05267680356066129,-0.08359115931049048,71.88434412809096
7.8,-0.03758795426487626,-0.09863630368853187,71.34559500973805
7.81,-0.04514269960312157,-0.08590903869646324,70.86325609318914
7.82,-0.030053850307336535,-0.09747736399554549,70.369508371781
7.83,-0.046876575582390986,-0.07954540620042892,69.80857546620179
7.84,-0.03294364360611889,-0.08879585211353841,69.11263836978826
7.85,-0.04803249290190393,-0.07375070773549701,68.29373970989184
7.86,-0.02831997432806712,-0.08995479180652478,67.32906187679403
7.87,-0.04338818224314656,-0.06970495462543547,66.30797384189222
7.88,-0.02831997432806712,-0.08879585211353841,65.35407099116146
7.89,-0.05094292758139188,-0.07084282268764028,64.49017093432026
7.9,-0.02772137428760506,-0.09054479746840877,63.78345885553968
7.91,-0.044544099562659506,-0.07954540620042892,63.24470973718677
7.92,-0.039342471624851265,-0.10038524904340222,62.89674118898
7.93,-0.06021090751820101,-0.08938585777542238,62.76237082063786
7.94,-0.04396614090290304,-0.10502100781534775,62.72877822855233
7.95,-0.05963294885844454,-0.08011434023153133,62.8181471999497
7.96,-0.04049838894436421,-0.11195357434248447,63.06533797189986
7.97,-0.061965424878176016,-0.09747736399554549,63.39048891038814
7.98,-0.05556659685944365,-0.11543039342144362,63.704864866509375
7.99,-0.06776565285644633,-0.09111373149951117,63.95142181596735
8.0,-0.05094292758139188,-0.10038524904340222,64.09783481166092
8.01,-0.06254338353793248,-0.06447919019160596,64.15361119097274
8.02,-0.016120918331064448,-0.05232085923063974,64.13142740374644
8.03,-0.019031353010552393,-0.003687535386774851,64.05283341471613
8.04,-0.00047475175622853046,-0.022209498843775387,63.92923802874106
8.05,0.008235910901529723,0.02410594561411674,63.704864866509375
8.06,-0.03294364360611889,-0.03204995041876885,63.39048891038814
8.07,-0.05267680356066129,-0.02336843853676177,63.04315418467356
8.08,-0.053254762220417765,-0.07200176238062665,62.695185636466796
8.09,-0.06369930085744543,-0.07895540053854495,62.34721708826003
8.1,-0.0584770315389316,-0.11949721816228674,61.92065455102296
8.11,-0.08341181943128224,-0.10211312276749102,61.47190822655959
8.12,-0.06427725951720191,-0.1281787300442938,61.05675449418176
8.13,-0.07472179815422958,-0.10963569495651171,60.6866021587487
8.14,-0.06312134219768896,-0.13397342850922572,60.32785862817488
8.15,-0.07703363279325547,-0.11195357434248447,59.99129888482735
8.16,-0.07296728079425457,-0.14554175380830797,59.66551412384688
8.17,-0.15823682448903975,-0.18144781266010424,59.31754557564012
8.18,-0.07761159145301194,-0.06795600927056511,58.93598443534782
8.19,0.2739111219631565,0.4091267832549743,58.62224230171877
8.2,0.7541947682207846,0.8549603473314445,58.352867742542315
8.21,0.8742656797851917,0.6552012875221555,58.10631079308433
8.22,0.3475802097014011,-0.09806736965742946,57.87052882599341
8.23,0.10277343453312404,-0.12065615785527312,57.6911570607065
8.24,0.061015921365718956,-0.12179402591747793,57.57897047959066
8.25,-0.024253622329066228,-0.07259176804251063,57.4325574838971
8.26,-0.0346981609660939,-0.10154418873638861,57.231001931383894
8.27,-0.0584770315389316,-0.07200176238062665,57.01740375151927
8.28,-0.051520886241148346,-0.09518055624035429,56.82662318137312
8.29,-0.06716705281598427,-0.05927449738855803,56.65866022094545
8.3,-0.0486104515616604,-0.08531903303457926,56.4678796507993
8.31,-0.06427725951720191,-0.051751925199537335,56.27709908065315
8.32,-0.046876575582390986,-0.07259176804251063,56.07490970564776
8.33,-0.05267680356066129,-0.026276323584618507,55.86194534827531
8.34,-0.0387438715843892,-0.04711616642759181,55.64898099090287
8.35,-0.04629861692263451,-0.005436480741645208,55.424607828671185
8.36,-0.030053850307336535,-0.0204816251196866,55.23382725852504
8.37,-0.039342471624851265,0.030469578110151052,55.07663928046442
8.38,-0.01032069035279414,0.024674879645219146,54.99804529143412
8.39,-0.009742731693037668,0.08662547414303663,55.009454096293354
8.4,0.022726160156852696,0.09242017260796855,55.18882586158026
8.41,0.012302262900530615,0.1700059171457114,55.682573582988404
8.42,0.05870408672669307,0.19375364503654144,56.725845405116516
8.43,0.07494885334199104,0.27481620865324347,58.64442608894507
8.44,0.11321797317015171,0.2852255942593393,61.71909899850975
8.45,0.11497249053012672,0.34485830937118406,65.60126176311162
8.46,0.1451295477409912,0.33038209902424504,69.39342173382396
8.47,0.14339567176172177,0.3379257428440473,72.42309324644387
8.48,0.1526636516985309,0.24063802352553598,74.5882308797304
8.49,0.10975022121161289,0.1827542537685616,75.94587865797975
8.5,0.08363887461904371,0.07158032976499525,76.6754083464788
8.51,0.03143682281461095,0.031059583772035028,76.87696389899202
8.52,0.014614097539556503,-0.04595722673460543,76.73118472579064
8.53,-0.0248315809888227,-0.04075253393155749,76.38385000007605
8.54,-0.01032069035279414,-0.08590903869646324,75.92369487075345
8.55,-0.04223226492363362,-0.06332025049861958,75.39635455725977
8.56,-0.01845339435079592,-0.09747736399554549,74.79042025473579
8.57,-0.041076347604120676,-0.07200176238062665,74.13948455526703
8.58,-0.025987498308335646,-0.10211312276749102,73.49995766065751
8.59,-0.0346981609660939,-0.06911494896355148,72.92761595021906
8.6,-0.02018727033006534,-0.09806736965742946,72.45668583852941
8.61,-0.030053850307336535,-0.06622813554647632,72.00793951406604
8.62,-0.023097705009553285,-0.10211312276749102,71.56996817196973
8.63,-0.03585407828560684,-0.06506919585348994,71.11044686513931
8.64,0.0001032069035279414,-0.09343161088548393,70.58247272915345
8.65,-0.024253622329066228,-0.06911494896355148,69.93217085217687
8.66,-0.008586814373524725,-0.09459055057847032,69.1240471746475
8.67,-0.019031353010552393,-0.059843431419660434,68.19296193363523
8.68,-0.003942503714767362,-0.09227267119249755,67.16046509387418
8.69,-0.02714341562784859,-0.06970495462543547,66.13937705897236
8.7,-0.02076522898982181,-0.10502100781534775,65.29829461184964
8.71,-0.02889793298782359,-0.07027388865653787,64.60235751543611
8.72,-0.02076522898982181,-0.10154418873638861,64.00783201777136
8.73,-0.03816591292463273,-0.07143282834952425,63.525493101222466
8.74,-0.01729747703128298,-0.10327206246047739,63.211117145101234
8.75,-0.039342471624851265,-0.07259176804251063,63.076746776759094
8.76,-0.02831997432806712,-0.11195357434248447,63.132523156070924
8.77,-0.04396614090290304,-0.07954540620042892,63.31189492135783
8.78,-0.02772137428760506,-0.11311251403547085,63.53626808358952
8.79,-0.04976636888117334,-0.0830011536486065,63.77205005068044
8.8,-0.032365684946362425,-0.11602039908332759,64.01924082263061
8.81,-0.04223226492363362,-0.07431964176659943,64.25438896722935
8.82,-0.030053850307336535,-0.09054479746840877,64.4008019629229
8.83,-0.021343187649578283,-0.0413214679626599,64.41157694528997
8.84,0.0076579522417732524,-0.04075253393155749,64.31079916903336
8.85,-0.011497249053012672,0.007880789912307395,64.14220238611351
8.86,0.04534911341017745,0.006152916188218608,63.95142181596735
8.87,-0.008008855713768253,0.013106554346136898,63.68268107928308
8.88,-0.02076522898982181,-0.04711616642759181,63.35689631830261
8.89,-0.04572065826287804,-0.028594202970591273,62.98674398286955
8.9,-0.024253622329066228,-0.09863630368853187,62.59377403771801
8.91,-0.05674315555966218,-0.08879585211353841,62.201437915058655
8.92,-0.042810223583390095,-0.13106554346136898,61.786284182680824
8.93,-0.06601113549647132,-0.10211312276749102,61.35972164544375
8.94,-0.04338818224314656,-0.13397342850922572,60.955976717925154
8.95,-0.06369930085744543,-0.11427145372845723,60.54082298554732
8.96,-0.05441067953993071,-0.14438281411532158,60.14785304039579
8.97,-0.07123340481498515,-0.11311251403547085,59.777700704962726
8.98,-0.0822559021117693,-0.1762220482262747,59.4189571743889
8.99,-0.14605840987274268,-0.15190538630434228,59.0595798213229
9.0,0.08363887461904371,0.12080365927074412,58.72302007797538
9.01,0.5001200131156984,0.6945841654529109,58.431461731572625
9.02,0.9003770263777607,0.8966611046481727,58.20708856934094
9.03,0.6503686232716755,0.2389101498014472,57.993490389476314
9.04,0.19501976490639808,-0.20228765550307753,57.82552742904864
9.05,0.08306091595928725,-0.11079463464949808,57.6911570607065
9.06,0.016347973518825918,-0.13049660943026659,57.51115147292741
9.07,-0.03120976762684948,-0.08706797838944962,57.320370902781264
9.08,-0.03412020230633743,-0.12006615219338915,57.14099913749435
9.09,-0.04629861692263451,-0.08127327992451772,56.96162737220744
9.1,-0.044544099562659506,-0.11370251969735483,56.79303058928758
9.11,-0.06485521817695837,-0.08127327992451772,56.60225001914144
9.12,-0.03992043028460773,-0.10154418873638861,56.37787685690975
9.13,-0.054988638199687176,-0.062161310805633196,56.14272871231101
9.14,-0.03992043028460773,-0.08243221961750409,55.918355550079326
9.15,-0.050344327540929816,-0.0413214679626599,55.71616617507394
9.16,-0.036432036945363316,-0.06332025049861958,55.51397680006855
9.17,-0.03412020230633743,-0.014686926654754691,55.27882865546981
9.18,-0.012653166372525617,-0.028004197308707294,55.088048085323656
9.19,-0.024253622329066228,0.02235700025924638,54.95304389448934
9.2,-0.006274979734498838,0.020629126535157593,54.885858710318274
9.21,0.0053254762220417765,0.08546653445005026,54.95304389448934
9.22,0.032592740134123895,0.09648699734881167,55.26741985061057
9.23,0.037237050792881254,0.18100530841369125,56.00772452147669
9.24,0.08248295729953077,0.2041630306426373,57.398964891811566
9.25,0.09177157861704549,0.2863845339523257,59.78910950982196
9.26,0.11555044918988319,0.29449711180323035,63.24470973718677
9.27,0.12830682246593675,0.3489251341120272,67.16046509387418
9.28,0.15208569303877445,0.3124501412291285,70.62747412609822
9.29,0.151507734379018,0.30954225618127174,73.2419919063403
9.3,0.14977385839974855,0.20070728319445974,75.00338461210823
9.31,0.10103955855385463,0.14743820057864931,76.05806523909558
9.32,0.07726068798101693,0.03221852346502141,76.52962917327743
9.33,0.023304118816609168,0.004425042464129821,76.60822316230774
9.34,0.00996978688079914,-0.0673870752394627,76.41744259216159
9.35,-0.015542959671307975,-0.05927449738855803,76.03588145186929
9.36,-0.019031353010552393,-0.1090667609254093,75.50854113837562
9.37,-0.033542243646580955,-0.07722752681445616,74.92479062307793
9.38,-0.021343187649578283,-0.11543039342144362,74.27448874610135
9.39,-0.03992043028460773,-0.08070434589341531,73.63496185149184
9.4,-0.02076522898982181,-0.11427145372845723,72.99480113439014
9.41,-0.04223226492363362,-0.07838646650744255,72.41168444158464
9.42,-0.01845339435079592,-0.11370251969735483,71.92934552503573
9.43,-0.026565456968092118,-0.07606858712146979,71.50278298779865
9.44,-0.016120918331064448,-0.11602039908332759,71.08762925542082
9.45,-0.030053850307336535,-0.07663752115257219,70.57169774678638
9.46,-0.005697021074742365,-0.10674888153943654,69.9093532424584
9.47,-0.013231125032282088,-0.07375070773549701,69.1240471746475
9.48,-0.008008855713768253,-0.10790782123242292,68.21514572086153
9.49,-0.019609311670308865,-0.07084282268764028,67.26187669262296
9.5,-0.012075207712769143,-0.11370251969735483,66.29656503703298
9.51,-0.02714341562784859,-0.08127327992451772,65.39907238810625
9.52,-0.01845339435079592,-0.11717933877631398,64.60235751543611
9.53,-0.036432036945363316,-0.088226918082436,63.962830620826594
9.54,-0.024253622329066228,-0.12006615219338915,63.48049170427769
9.55,-0.039342471624851265,-0.08706797838944962,63.155340765789404
9.56,-0.023097705009553285,-0.12411190530345069,62.98674398286955
9.57,-0.03758795426487626,-0.09054479746840877,62.97533517801031
9.58,-0.0346981609660939,-0.13106554346136898,63.09893056398539
9.59,-0.04918841022141687,-0.09863630368853187,63.2783023292723
9.6,-0.033542243646580955,-0.1281787300442938,63.525493101222466
9.61,-0.0387438715843892,-0.09227267119249755,63.839235234851515
9.62,-0.02714341562784859,-0.1281787300442938,64.10860979402797
9.63,-0.04338818224314656,-0.09459055057847032,64.23220518000305
9.64,-0.03063180896709301,-0.1293376697372802,64.25438896722935
9.65,-0.0387438715843892,-0.09054479746840877,64.19861258791751
9.66,-0.03294364360611889,-0.11311251403547085,64.09783481166092
9.67,-0.047454534242147454,-0.062161310805633196,63.91782922388182
9.68,-0.0010527104159850024,-0.06970495462543547,63.6598634695646
9.69,0.0053254762220417765,-0.002528595693788469,63.34548751344337
9.7,0.008235910901529723,-0.034957835466625585,63.008927770095845
9.71,0.03143682281461095,0.03221852346502141,62.65018423952203
9.72,-0.014965001011551503,-0.03784464888370075,62.257214294370485
9.73,-0.0387438715843892,-0.02743526327760489,61.84206056199265
9.74,-0.03992043028460773,-0.08531903303457926,61.37113045030299
9.75,-0.04976636888117334,-0.08243221961750409,60.93315910820668
9.76,-0.04572065826287804,-0.13627023626441692,60.58582438249209
9.77,-0.07065544615522869,-0.10674888153943654,60.21567204705904
9.78,-0.050344327540929816,-0.1426549403912328,59.822702101907495
9.79,-0.060788866177957486,-0.11138464031138207,59.407548369529664
9.8,-0.05094292758139188,-0.15365433165921263,58.980985832292596
9.81,-0.05905499019868807,-0.11543039342144362,58.62224230171877
9.82,-0.051520886241148346,-0.15481327135219902,58.33068395531602
9.83,-0.10952316602385141,-0.16928948169913802,58.04990059128032
9.84,-0.11010112468360789,-0.15481327135219902,57.74693344001833
9.85,0.1752866049518557,0.2782930277322026,57.50037649056035
9.86,0.6300575046573766,0.7872150543686951,57.29818711555497
9.87,0.9131333996538143,0.8584371664104037,57.11881535026805
9.88,0.4896961158593764,0.02931063841716467,56.973036177066675
9.89,0.13990727842247735,-0.1490185728872671,56.849440791091595
9.9,0.08132703998001782,-0.13917812131227367,56.71443660025728
9.91,-0.012653166372525617,-0.07838646650744255,56.58006623191514
9.92,-0.033542243646580955,-0.12874766407539623,56.434287058713764
9.93,-0.060788866177957486,-0.09054479746840877,56.310691672738685
9.94,-0.04803249290190393,-0.11486145939034122,56.19850509162284
9.95,-0.06485521817695837,-0.07606858712146979,56.052725918421466
9.96,-0.04918841022141687,-0.09979524338151825,55.88412913550161
9.97,-0.06021090751820101,-0.056956618002585266,55.72757497993317
9.98,-0.04338818224314656,-0.08475009900347685,55.53679440978703
9.99,-0.057899072879175124,-0.04420828137973507,55.28960363783687
