time_s,ECG1,ECG2,NIBP
0.0,-0.03760300273891923,0.14510500449862465,137.43247403046573
0.01,0.03896214741622957,0.1503244428269215,129.12963922803158
0.02,0.018672059019239583,0.19201066487371724,127.24451510403219
0.03,0.08365211882969553,0.1705786349238965,127.83889904824953
0.04,0.09060964515402224,0.22039424764131388,128.9725909932292
0.05,0.12135220333127979,0.16884652043441745,131.07038460185683
0.06,0.10161224492272494,0.17579807325219335,133.71839233866362
0.07,0.13177231252399235,0.14106340402317355,137.39866503547356
0.08,0.06970470559348711,0.12427344090515666,139.81110042007677
0.09,0.05290956065243799,0.05884570292256814,142.55998983548923
0.1,-0.020193006634324957,0.0403236253150722,143.43520656069
0.11,0.011714532694912875,0.024111033693548327,143.79401815270379
0.12,-0.10546315484177089,-0.041894075785533204,142.43675059567906
0.13,-0.057893091135909215,-0.04826825710681609,140.39457823687727
0.14,-0.07705055896847392,-0.01757518835324739,138.330048316871
0.15,-0.06543310803622607,-0.044804028127858,136.93842645848324
0.16,-0.05847558171189936,0.010785299554489529,136.05230360586563
0.17,-0.07355561551253306,-0.0586840389035501,135.8614463760711
0.18,-0.10604564541776103,-0.030323550995813173,135.49118335026964
0.19,-0.05847558171189936,-0.03842984680657511,135.56970746767084
0.2,-0.0590580722878895,0.02120108135122353,135.34558654925493
0.21,-0.046308000791216365,-0.03090092249230619,135.33413511546726
0.22,-0.0932632133335329,-0.01875302620609314,134.99768108465798
0.23,-0.05151805538757265,-0.050577743092788154,134.60506049765203
0.24,-0.07530308724050348,-0.0025404345845692683,134.08865536446507
0.25,-0.029480495262612236,-0.02685932201685508,133.63986822126242
0.26,-0.03760300273891923,0.01600473788278639,133.2357962004688
0.27,0.014626985574863591,0.007898442072024451,133.0116752820529
0.28,-0.06252065515627535,-0.021062512192065206,132.80936661847068
0.29,-0.03006298583860238,-0.04769088561032308,132.91079360344722
0.3,-0.04048309503131494,-0.0019630630880762526,132.87698460845502
0.31,0.002427044066625596,-0.004272549074048315,132.94405729206855
0.32,-0.04572551021522622,0.005565861226192669,133.03403284325742
0.33,0.001844553490635453,-0.008891521045992438,133.17962964427213
0.34,-0.05847558171189936,-0.005427292067034345,133.31432031787
0.35,-0.04456052906324594,-0.05926141040004311,133.43810486405104
0.36,-0.04339554791126565,-0.00020785373873748558,133.50517754766454
0.37,0.011132042118922733,-0.013533587877796283,133.63986822126242
0.38,-0.02252296893828553,0.016582109379279404,133.71839233866362
0.39,-0.014982952037968678,-0.04247144728202622,133.7298437724513
0.4,-0.04106558560730508,0.0032563752402206074,133.6289620938456
0.41,-0.015565442613958822,-0.04247144728202622,133.54989267007355
0.42,-0.053265527115543075,-0.0025404345845692683,133.42665343026337
0.43,0.0041745157945960246,-0.012956216381303268,133.30341419045317
0.44,-0.04106558560730508,0.014849994889800358,133.20253251184747
0.45,-0.020193006634324957,-0.037852475310082095,133.1125569606586
0.46,-0.025985551806671378,0.01715948087577242,133.02258140946972
0.47,-0.01844553490635453,-0.03727510381358908,132.94405729206855
0.48,-0.03760300273891923,-0.0025404345845692683,132.85462704725052
0.49,0.030289509951487437,-0.03900721830306812,132.89934216965955
0.5,0.008219589238972019,-0.008314149549499423,132.87698460845502
0.51,0.08365211882969553,-0.011801473388317236,132.78700905726618
0.52,0.08536722997011095,0.048429921125834136,132.68612737866047
0.53,0.0900271545780321,0.004988489729699654,132.5737942662671
0.54,0.008802079814962161,0.029884748658478483,132.46200646024457
0.55,0.06216468869317026,0.026997891176013405,132.3834823428434
0.56,0.0006795723386551669,0.025843148183027374,132.3834823428434
0.57,-0.039318113879334655,-0.055797181421085015,132.4058399040479
0.58,-0.0399006044553248,0.019468966861744482,132.3834823428434
0.59,-0.031227966990582667,-0.044226656631364984,132.3834823428434
0.6,-0.08630568700920618,-0.022217255185051236,132.37203090905572
0.61,-0.04106558560730508,-0.03842984680657511,132.31586435285902
0.62,-0.07705055896847392,-0.013533587877796283,132.21498267425332
0.63,-0.014982952037968678,-0.03090092249230619,132.10264956185998
0.64,-0.11183819059010745,0.12078611706633884,132.03557687824645
0.65,0.18400230083777516,-0.10907702311746048,132.03557687824645
0.66,1.067446341089492,0.03394944399378931,132.06884056686778
0.67,1.715370025115861,-0.06679033471431203,132.00176788325427
0.68,0.5418780386086081,-0.195336324693517,131.9117923320654
0.69,-0.005112972833691255,-0.24050987057913054,131.8109106534597
0.7,-0.039318113879334655,-0.06390347723184696,131.7661955310507
0.71,-0.06197052516784021,-0.05986187675639584,131.77764696483837
0.72,-0.08688817758519633,0.011362671050982544,131.7661955310507
0.73,-0.07588557781649363,-0.03900721830306812,131.7214804086417
0.74,-0.11125570001411732,0.0003695177577555299,131.7214804086417
0.75,-0.08805315873717662,-0.04131670428904019,131.71002897485403
0.76,-0.09908811909343432,0.009053185065010483,131.67621997986183
0.77,-0.07180814378456263,-0.025681484164009328,131.665313852445
0.78,-0.09038312104113719,0.03163995800781725,131.63150485745282
0.79,-0.06080554401585993,-0.004272549074048315,131.59769586246065
0.8,-0.08630568700920618,0.039746253818579186,131.55298074005162
0.81,-0.07297312493654291,-0.01122410189182422,131.46300518886278
0.82,-0.05672810998392892,0.06926148471930213,131.3283145152649
0.83,-0.0468581307796515,0.008475813568517468,131.2050752754547
0.84,-0.09213059276910762,0.05016203561531318,131.16036015304567
0.85,-0.04106558560730508,0.035104186986775344,131.1265511580535
0.86,-0.06543310803622607,0.08258721885836093,131.104193596849
0.87,-0.03410805928297837,0.0611551889085402,131.09274216306133
0.88,-0.03876798389089952,0.13411185120539765,131.148908719258
0.89,-0.0068604445616616844,0.10921559227661881,131.28359939285588
0.9,-0.020193006634324957,0.16538229145545935,131.59769586246065
0.91,0.07899219422177439,0.1914332933772242,132.21498267425332
0.92,0.018672059019239583,0.19838484619500013,133.56134410386125
0.93,0.07782721306979411,0.15554388115521836,135.89525537106326
0.94,0.07899219422177439,0.1972301032020141,139.04821680726937
0.95,0.11089973355101222,0.13817654654070846,142.30205992208118
0.96,0.045369543752121134,0.12716029838762172,145.35359437331076
0.97,0.05753712467280413,0.08778356232679807,147.72131463550494
0.98,-0.04223056675928537,0.04205573980455125,148.8321037129093
0.99,-0.050935564811582505,-0.010646730395331205,148.79829471791712
1.0,-0.08863564931316675,0.02353366219705531,147.70986320171727
1.01,-0.06718057976419649,-0.03669773231709606,145.93707219011125
1.02,-0.08863564931316675,0.022956290700562296,144.1533750510884
1.03,-0.07472059666451335,-0.02974617949932016,142.7732046264883
1.04,-0.13271076956308758,-0.029168808002827142,141.9088940287044
1.05,-0.10083559082140475,-0.05926141040004311,141.53863100290295
1.06,-0.11763073576245388,-0.008314149549499423,141.41539176309274
1.07,-0.08572319643321605,-0.035542989324110034,141.46010688550174
1.08,-0.13966829588741428,-0.035542989324110034,141.6062489928873
1.09,-0.07763304954446405,-0.026258855660502345,141.707130671493
1.1,-0.15128574681966214,-0.025104112667516314,141.6286065540918
1.11,-0.10371568311380046,-0.044804028127858,141.28070108949487
1.12,-0.12808320554272143,0.0009468892542485454,140.47310235427847
1.13,-0.1083756077217216,-0.047113514113830066,139.30614672067745
1.14,-0.11358566231807789,0.0009468892542485454,138.08302453087975
1.15,-0.07934816068487947,-0.028014065009841112,137.11837756086095
1.16,-0.08342559471681048,0.01194004254747556,136.46728175407608
1.17,-0.07064316263258234,-0.04131670428904019,136.01849461087346
1.18,-0.10196821138583004,-0.012378844884810251,135.73820713626088
1.19,-0.06776307034018664,-0.03727510381358908,135.56970746767084
1.2,-0.07993065126086962,0.0015242607507415609,135.51354091147414
1.21,-0.05443050826752336,-0.028591436506334125,135.4802772228528
1.22,-0.10255070196182017,-0.02048514069557219,135.06475376827152
1.23,-0.07993065126086962,-0.06332610573535394,134.6606817474779
1.24,-0.10083559082140475,-0.02279462668154425,134.59360906386436
1.25,-0.06138803459185007,-0.044226656631364984,134.64977562006106
1.26,-0.09792313794145403,-0.013533587877796283,134.72829973746224
1.27,-0.05210054596356279,-0.040161961296054156,134.71684830367457
1.28,-0.0892181398891569,-0.015265702367275329,134.6383241862734
1.29,-0.04456052906324594,-0.03205566548529222,134.47036982405416
1.3,-0.10371568311380046,-0.03378777997477127,134.26806116047194
1.31,-0.05964056286387964,-0.047113514113830066,134.06629780326054
1.32,-0.08805315873717662,-0.023371998178037267,133.88689200725366
1.33,-0.0590580722878895,-0.05000037159629514,133.74074989986812
1.34,-0.06659808918820635,-0.007159406556513392,133.59515309885342
1.35,-0.04223056675928537,-0.03147829398879921,133.42665343026337
1.36,-0.08863564931316675,-0.01933039770258616,133.24724763425647
1.37,-0.04048309503131494,-0.03378777997477127,133.07874796566642
1.38,-0.07064316263258234,-0.015265702367275329,132.97786628706072
1.39,-0.057310600559919066,-0.05406506693160597,132.91079360344722
1.4,-0.06892805149216692,-0.0060046635635273606,132.80936661847068
1.41,-0.029480495262612236,-0.03612036082060305,132.68612737866047
1.42,-0.08805315873717662,-0.029168808002827142,132.59669713384244
1.43,0.0041745157945960246,-0.01875302620609314,132.5514367050626
1.44,-0.034690549858968515,-0.01875302620609314,132.4952701488659
1.45,-0.0068604445616616844,-0.06448084872833997,132.4058399040479
1.46,0.01808956844324944,0.009053185065010483,132.29350679165452
1.47,0.06216468869317026,-0.004272549074048315,132.19262511304882
1.48,0.03491707397185357,0.039746253818579186,132.11410099564765
1.49,0.03433458339586343,0.01715948087577242,132.05793443945095
1.5,-0.012070499158017963,0.0403236253150722,131.9903164494666
1.51,-0.01728055375437424,-0.03669773231709606,131.93469519964074
1.52,-0.08167812298884006,-0.01933039770258616,131.87852864344407
1.53,-0.06080554401585993,-0.046536142617337045,131.7885530922552
1.54,-0.09038312104113719,-0.022217255185051236,131.71002897485403
1.55,-0.07993065126086962,-0.058106667407057076,131.665313852445
1.56,-0.09442819448551318,-0.02163988368855822,131.57533830125615
1.57,-0.06252065515627535,-0.035542989324110034,131.47445662265045
1.58,-0.10196821138583004,-0.03436515147126428,131.39593250524925
1.59,-0.048605602507621935,0.08662881933381204,131.31740838784808
1.6,0.38062523082200345,-0.1820105905544582,131.26124183165138
1.61,1.3534168533130972,0.0507394071118062,131.26124183165138
1.62,1.5935647735588112,-0.06736770621080504,131.21652670924237
1.63,0.3440901274723995,-0.2949213604086323,131.16036015304567
1.64,-0.05443050826752336,-0.16870795127525912,131.148908719258
1.65,-0.04281305733527551,-0.0893771076571188,131.104193596849
1.66,-0.10371568311380046,-0.01122410189182422,131.0371209132355
1.67,-0.09096561161712734,-0.03612036082060305,130.95805148946346
1.68,-0.14374572991934528,-0.025104112667516314,130.86862124464542
1.69,-0.08517306644478091,-0.019907769199079172,130.83481224965325
1.7,-0.12808320554272143,-0.003695177577555299,130.79009712724425
1.71,-0.10662813599375118,-0.028591436506334125,130.72247913725988
1.72,-0.11416815289406802,0.010207928057996514,130.67776401485088
1.73,-0.0660155986122162,0.01194004254747556,130.68921544863855
1.74,-0.10950822828614688,0.012517414043968576,130.68921544863855
1.75,-0.08747066816118647,-0.01006935889883819,130.59923989744968
1.76,-0.10604564541776103,0.015427366386293374,130.5207157800485
1.77,-0.07705055896847392,0.007321070575531437,130.4645492238518
1.78,-0.08805315873717662,0.053048893097778264,130.45364309643497
1.79,-0.05964056286387964,0.049007292622327156,130.40838266765513
1.8,-0.09096561161712734,0.06057781741204719,130.30750098904943
1.81,-0.050935564811582505,0.06926148471930213,130.20661931044373
1.82,-0.09154810219311747,0.08374196185134697,130.24042830543593
1.83,-0.03064547641459252,0.10632873479415374,130.3751189790338
1.84,-0.027150532958651667,0.1705786349238965,130.65540645364638
1.85,0.015759606139288868,0.17233384427323525,131.23888427044687
1.86,0.008219589238972019,0.19547489385267533,132.33822191406352
1.87,0.06798959445307169,0.19665273170552108,134.42510939527432
1.88,0.05637214352082384,0.204759027516283,137.55571327027593
1.89,0.10394220722668551,0.1798627685875042,141.0451287372913
1.9,0.12076971275528965,0.2076458849987481,144.38894740329195
1.91,0.06449465099713084,0.09242562915860192,147.13783681870444
1.92,0.02329962303960572,0.09069351466912287,148.68596160552374
1.93,0.03549956454784371,0.05711358843308909,149.0000580751285
1.94,-0.057893091135909215,0.009053185065010483,148.28243489110096
1.95,-0.043978038487255795,-0.01642044536026136,146.77847992031982
1.96,-0.04744062135564164,0.018891595365251465,145.11802202110718
1.97,-0.06080554401585993,-0.03205566548529222,143.77166059149928
1.98,-0.08284310414082034,-0.013533587877796283,142.95261042249518
1.99,-0.04744062135564164,-0.022217255185051236,142.58234739669376
2.0,-0.07876567010888934,-0.015265702367275329,142.51527471308023
2.01,-0.06138803459185007,-0.03612036082060305,142.66087151409494
2.02,-0.08109563241284991,-0.0019630630880762526,142.874086305094
2.03,-0.06080554401585993,-0.03669773231709606,143.0758496623054
2.04,-0.07763304954446405,-0.008891521045992438,143.1320162185021
2.05,-0.06776307034018664,-0.03727510381358908,142.874086305094
2.06,-0.09038312104113719,-0.005427292067034345,142.22353580467998
2.07,-0.05964056286387964,-0.01933039770258616,141.19127084467684
2.08,-0.11300317174208774,-0.02685932201685508,139.8220065474936
2.09,-0.0631031457322655,-0.024526741171023297,138.38621487306767
2.1,-0.08747066816118647,-0.01006935889883819,137.18545024447448
2.11,-0.07472059666451335,-0.03958458979956114,136.35494864168274
2.12,-0.09384570390952304,-0.015843073863768344,135.87289780985876
2.13,-0.04744062135564164,-0.01933039770258616,135.603516462663
2.14,-0.07763304954446405,-0.01006935889883819,135.45737435527747
2.15,-0.03410805928297837,-0.02048514069557219,135.37885023787626
2.16,-0.07472059666451335,-0.006582035060020377,135.35649267667176
2.17,-0.06197052516784021,-0.04247144728202622,135.34558654925493
2.18,-0.09559317563749346,-0.03147829398879921,135.35649267667176
2.19,-0.0631031457322655,-0.03436515147126428,135.35649267667176
2.2,-0.10025310024541462,-0.019907769199079172,135.31177755426276
2.21,-0.05556312883194864,-0.023371998178037267,135.1994444418694
2.22,-0.08863564931316675,-0.015265702367275329,135.04239620706701
2.23,-0.07876567010888934,-0.048845628603309106,134.87389653847694
2.24,-0.09154810219311747,-0.023371998178037267,134.72829973746224
2.25,-0.06543310803622607,-0.04364928513487197,134.60506049765203
2.26,-0.07530308724050348,-0.003695177577555299,134.47036982405416
2.27,-0.06426812688424578,-0.044804028127858,134.32422771666862
2.28,-0.07297312493654291,-0.012956216381303268,134.05484636947287
2.29,-0.05672810998392892,-0.035542989324110034,133.7745588948603
2.3,-0.08805315873717662,-0.023371998178037267,133.61751066005792
2.31,-0.06368563630825563,-0.03958458979956114,133.53898654265672
2.32,-0.07763304954446405,-0.018152559849740405,133.48281998646004
2.33,-0.06197052516784021,-0.04364928513487197,133.33722318544534
2.34,-0.07934816068487947,-0.025104112667516314,133.12400839444626
2.35,-0.053265527115543075,-0.037852475310082095,132.91079360344722
2.36,-0.06543310803622607,-0.014688330870782314,132.80936661847068
2.37,-0.053265527115543075,-0.04595877112084403,132.71993637365264
2.38,-0.07180814378456263,-0.02048514069557219,132.61905469504694
2.39,-0.05614561940793878,-0.046536142617337045,132.48436402144907
2.4,-0.06197052516784021,-0.014110959374289299,132.33822191406352
2.41,-0.05614561940793878,-0.03900721830306812,132.25969779666235
2.42,-0.06368563630825563,-0.012956216381303268,132.22643410804102
2.43,-0.04514301963923608,-0.02685932201685508,132.17026755184432
2.44,-0.04456052906324594,-0.01757518835324739,132.05793443945095
2.45,-0.010323027430047534,-0.034965617827617014,131.9117923320654
2.46,-0.02252296893828553,-0.028014065009841112,131.7885530922552
2.47,0.011714532694912875,-0.02974617949932016,131.69857754106633
2.48,0.045369543752121134,0.02757526267250642,131.665313852445
2.49,0.03954463799221971,0.004411118233206638,131.63150485745282
2.5,0.005921987522566454,0.036836301476254385,131.49681418385495
2.51,0.001844553490635453,0.012517414043968576,131.3283145152649
2.52,-0.05556312883194864,-0.014110959374289299,131.2050752754547
2.53,-0.06426812688424578,-0.03727510381358908,131.13800259184117
2.54,-0.09038312104113719,-0.02394936967453028,131.1265511580535
2.55,-0.07763304954446405,-0.037852475310082095,131.104193596849
2.56,-0.09038312104113719,-0.027436693513348095,131.0371209132355
2.57,-0.07763304954446405,-0.041894075785533204,130.93569392825896
2.58,-0.09038312104113719,-0.028591436506334125,130.86862124464542
2.59,-0.09501068506150333,-0.062171362742367904,130.76773956603975
2.6,-0.11591562462203846,0.12078611706633884,130.62159745865418
2.61,0.2066223515387257,-0.14900803581491742,130.45364309643497
2.62,1.144593981820631,0.022956290700562296,130.35221611145843
2.63,1.7507401473134847,-0.06854554406365079,130.35221611145843
2.64,0.5082553881389548,-0.24919353788638549,130.30750098904943
2.65,-0.010905518006037677,-0.2358678037473267,130.22897687164823
2.66,-0.0590580722878895,-0.08475813568517468,130.11664375925488
2.67,-0.07763304954446405,-0.030323550995813173,130.07192863684585
2.68,-0.11416815289406802,-0.025104112667516314,129.99340451944468
2.69,-0.11646575461047359,-0.035542989324110034,129.91488040204348
2.7,-0.12983067727069186,-0.013533587877796283,129.94868939703565
2.71,-0.11821322633844401,-0.028591436506334125,129.97104695824015
2.72,-0.11475064347005817,0.009053185065010483,129.91488040204348
2.73,-0.09967060966942447,-0.015843073863768344,129.8249048508546
2.74,-0.10662813599375118,0.006143232722685685,129.7131170448321
2.75,-0.09967060966942447,-0.0031178060810622835,129.62314149364323
2.76,-0.0973406473654639,0.02468840519004134,129.60078393243873
2.77,-0.09675815678947375,0.004988489729699654,129.54461737624203
2.78,-0.09096561161712734,0.035104186986775344,129.40992670264416
2.79,-0.08051314183685976,0.022956290700562296,129.3199511514553
2.8,-0.08459057586879076,0.048429921125834136,129.29759359025078
2.81,-0.07876567010888934,0.046097340280002355,129.28668746283395
2.82,-0.05556312883194864,0.08662881933381204,129.27523602904628
2.83,-0.0700606720565922,0.0675293702298231,129.23052090663728
2.84,-0.048605602507621935,0.12311869791217062,129.23052090663728
2.85,-0.014400461461978535,0.14568237599511766,129.35376014644748
2.86,-0.010905518006037677,0.16884652043441745,129.7016656110444
2.87,0.01983704017121987,0.1734885872662213,130.55452477504068
2.88,0.06507714157312097,0.21402006632003098,132.18117367926115
2.89,0.07261715847343783,0.1775301877416724,134.76210873245444
2.9,0.1161097881473685,0.20706851350225508,138.12773965328876
2.91,0.11902224102731922,0.1775301877416724,141.5053673142816
2.92,0.10973475239903194,0.1537886718058796,144.47837764810998
2.93,0.06044957755275484,0.08836093382329109,146.48674101191958
2.94,0.02679456649554658,0.05420363609076429,147.31724261471132
2.95,-0.005112972833691255,0.014849994889800358,147.0140522725234
2.96,-0.03064547641459252,0.0200463383582375,145.73530883289985
2.97,-0.050935564811582505,-0.01875302620609314,144.01868437749053
2.98,-0.04514301963923608,0.0015242607507415609,142.38058403948236
2.99,-0.06543310803622607,-0.03669773231709606,141.11274672727566
3.0,-0.07472059666451335,-0.03727510381358908,140.29369655827156
3.01,-0.05964056286387964,-0.037852475310082095,139.96814865487914
3.02,-0.04918809308361208,-0.010646730395331205,140.03522133849265
3.03,-0.07818317953289919,-0.05000037159629514,140.29369655827156
3.04,-0.07297312493654291,-0.025681484164009328,140.43929335928627
3.05,-0.06080554401585993,-0.02279462668154425,140.47310235427847
3.06,-0.07122565320857248,-0.022217255185051236,140.3046026856884
3.07,-0.09442819448551318,-0.053487695435112954,139.8220065474936
3.08,-0.07934816068487947,-0.021062512192065206,138.891168572467
3.09,-0.06951054206815706,-0.021062512192065206,137.55571327027593
3.1,-0.08805315873717662,-0.03205566548529222,136.23170940187254
3.11,-0.07122565320857248,-0.03321040847827825,135.16563544687722
3.12,-0.07239063436055278,-0.025681484164009328,134.4927273852587
3.13,-0.07180814378456263,-0.044226656631364984,135.00858721207481
3.14,-0.04918809308361208,-0.018152559849740405,135.46882578906514
3.15,-0.0468581307796515,-0.02394936967453028,135.39030167166393
3.16,-0.06718057976419649,-0.03900721830306812,135.23325343686156
3.17,-0.08342559471681048,-0.055797181421085015,135.1209203244682
3.18,-0.05384801769153322,-0.02048514069557219,135.08711132947602
3.19,-0.07122565320857248,-0.04538139962435102,135.00858721207481
3.2,-0.05268303653955293,-0.018152559849740405,135.00858721207481
3.21,-0.07876567010888934,-0.044804028127858,134.9638720896658
3.22,-0.060223053439869785,-0.025681484164009328,134.93006309467364
3.23,-0.07818317953289919,-0.055219809924592,134.8182752886511
3.24,-0.04977058365960222,-0.026258855660502345,134.71684830367457
3.25,-0.08688817758519633,-0.05464243842809899,134.54889394145536
3.26,-0.06426812688424578,-0.03205566548529222,134.34658527787312
3.27,-0.06776307034018664,-0.03436515147126428,134.06629780326054
3.28,-0.05614561940793878,-0.027436693513348095,133.830725451057
3.29,-0.08805315873717662,-0.06854554406365079,133.6289620938456
3.3,-0.05556312883194864,-0.024526741171023297,133.40429586905884
3.31,-0.05556312883194864,-0.015843073863768344,133.2134386392643
3.32,-0.07818317953289919,-0.05117820944914089,133.0454842770451
3.33,-0.06543310803622607,-0.034965617827617014,132.86553317466735
3.34,-0.04572551021522622,-0.022217255185051236,132.67522125124364
3.35,-0.057310600559919066,-0.03669773231709606,132.46200646024457
3.36,-0.05443050826752336,-0.025104112667516314,132.37203090905572
3.37,-0.05443050826752336,-0.016997816856754375,132.28205535786685
3.38,-0.07355561551253306,-0.04131670428904019,132.10264956185998
3.39,-0.06368563630825563,-0.03727510381358908,131.93469519964074
3.4,-0.057893091135909215,-0.02394936967453028,131.80000452604287
3.41,-0.07646806839248377,-0.03958458979956114,131.6876714136495
3.42,-0.031227966990582667,-0.02394936967453028,131.62005342366515
3.43,0.0035920252186058817,-0.015265702367275329,131.55298074005162
3.44,-0.009158046278067248,-0.028591436506334125,131.38448107146158
3.45,-0.006277953985671541,-0.04073933279254717,131.2274328366592
3.46,0.061614558704735124,0.013094785540461592,131.09274216306133
3.47,0.029707019375497294,0.010207928057996514,130.96950292325113
3.48,0.008802079814962161,0.014849994889800358,130.86862124464542
3.49,0.01229702327090302,0.02235582434420956,130.75628813225205
3.5,-0.05210054596356279,-0.012956216381303268,130.67776401485088
3.51,-0.08688817758519633,-0.050577743092788154,130.65540645364638
3.52,-0.07530308724050348,-0.03378777997477127,130.587788463662
3.53,-0.08167812298884006,-0.05175558094563391,130.45364309643497
3.54,-0.08109563241284991,-0.04595877112084403,130.3189524228371
3.55,-0.05847558171189936,-0.024526741171023297,130.20661931044373
3.56,-0.07646806839248377,-0.03205566548529222,130.10573763183805
3.57,-0.08630568700920618,-0.03900721830306812,130.00485595323235
3.58,-0.07588557781649363,0.10921559227661881,129.87016527963448
3.59,0.4363178020041721,-0.09286443149593661,129.72402317224893
3.6,1.2292816394520867,-0.026258855660502345,129.57842637123423
3.61,1.3342593854805325,-0.16579799893293432,129.4769993862577
3.62,0.1364322371319135,-0.3429817637767109,129.38756914143966
3.63,-0.05384801769153322,-0.1785463615755001,129.33140258524298
3.64,-0.06426812688424578,-0.07258714453910191,129.2414270340541
3.65,-0.08109563241284991,-0.04942300009980213,129.1405453554484
3.66,-0.0892181398891569,-0.030323550995813173,129.10673636045624
3.67,-0.07355561551253306,-0.007736778053006407,129.08437879925174
3.68,-0.08109563241284991,-0.006582035060020377,128.9949485544337
3.69,-0.08980063046514704,-0.028591436506334125,128.88261544204033
3.7,-0.08459057586879076,-0.008314149549499423,128.78173376343466
3.71,-0.03760300273891923,0.01831422386875845,128.70320964603346
3.72,-0.08109563241284991,-0.019907769199079172,128.68085208482896
3.73,-0.07064316263258234,-0.006582035060020377,128.65794921725362
3.74,-0.06197052516784021,0.013672157036954607,128.64704308983676
3.75,-0.054980638255958496,0.010207928057996514,128.57942509985241
3.76,-0.04106558560730508,0.049007292622327156,128.4114707376332
3.77,-0.054980638255958496,0.024111033693548327,128.28768619145217
3.78,-0.03643802158693894,0.05478100758725731,128.25442250283083
3.79,-0.03876798389089952,0.04667471177649537,128.24297106904314
3.8,-0.016115572602393956,0.09937718197637782,128.19825594663413
3.81,-0.00802542571364197,0.09127088616561589,128.14208939043746
3.82,0.008802079814962161,0.13757608018435571,128.06356527303626
3.83,0.04478705317613099,0.15263392881289356,128.01885015062726
3.84,0.06332966984515055,0.1781075592381654,128.08592283424076
3.85,0.08886217342605181,0.1729112157697283,128.4561858600422
3.86,0.12656225792763606,0.22212636213079293,129.28668746283395
3.87,0.15151227093254718,0.1972301032020141,130.76773956603975
3.88,0.17121986875354703,0.2082232564952411,133.1572720830676
3.89,0.15325974266051762,0.1561212526517114,136.20935184066803
3.9,0.12481478619966564,0.1335344797089046,139.23852873069308
3.91,0.07436463020140825,0.05942307441906115,141.79710622268186
3.92,0.05462467179285341,0.07332618005461297,143.5808033617047
3.93,0.018672059019239583,0.009053185065010483,144.2651628571109
3.94,-0.013817970885988393,0.007321070575531437,143.77166059149928
3.95,0.005921987522566454,-0.003695177577555299,142.12210881970344
3.96,-0.01728055375437424,0.005565861226192669,140.00195764987131
3.97,-0.03527304043495866,-0.03090092249230619,138.07211840346292
3.98,-0.043978038487255795,-0.021062512192065206,136.85990234108203
3.99,-0.04048309503131494,-0.02974617949932016,136.19790040688034
4.0,-0.04977058365960222,-0.01642044536026136,135.83908881486659
4.01,-0.048605602507621935,-0.02394936967453028,135.648231585072
4.02,-0.03876798389089952,-0.004272549074048315,135.4802772228528
4.03,-0.04456052906324594,-0.023371998178037267,135.28941999305826
4.04,-0.0468581307796515,-0.011801473388317236,135.00858721207481
4.05,-0.0468581307796515,-0.034965617827617014,134.5821576300767
4.06,-0.03410805928297837,-0.005427292067034345,134.02158268085154
4.07,-0.03818549331490938,-0.02685932201685508,133.33722318544534
4.08,-0.0039479916817109694,0.024111033693548327,132.5737942662671
4.09,-0.03410805928297837,-0.018152559849740405,131.95705276084524
4.1,-0.04514301963923608,-0.01875302620609314,131.6429562912405
4.11,-0.016698063178384098,-0.012956216381303268,131.48590805643812
4.12,-0.025403061230681236,-0.007736778053006407,131.40683863266608
4.13,-0.031227966990582667,-0.025681484164009328,131.82236208724737
4.14,-0.012070499158017963,0.009630556561503498,132.27114923045002
4.15,-0.04456052906324594,-0.037852475310082095,132.41674603146473
4.16,-0.03006298583860238,-0.0013625967317235166,132.41674603146473
4.17,-0.021940478362295388,-0.01933039770258616,132.41674603146473
4.18,-0.03527304043495866,-0.024526741171023297,132.46200646024457
4.19,-0.02831551411063195,-0.018152559849740405,132.41674603146473
4.2,-0.02135798778630524,-0.0007852252352305011,132.31586435285902
4.21,-0.02423808007870095,-0.018152559849740405,132.13645855685215
4.22,0.0006795723386551669,0.016582109379279404,131.94560132705757
4.23,-0.05614561940793878,-0.05291032393861994,131.69857754106633
4.24,-0.0207754972103151,0.0009468892542485454,131.49681418385495
4.25,-0.01902802548234467,-0.02279462668154425,131.29505082664355
4.26,-0.0317780969790178,-0.023371998178037267,131.19416914803787
4.27,-0.014982952037968678,-0.025681484164009328,131.07038460185683
4.28,-0.01728055375437424,-0.007159406556513392,130.91333636705446
4.29,-0.009158046278067248,-0.023371998178037267,130.75628813225205
4.3,-0.013817970885988393,-0.012956216381303268,130.57688233624518
4.31,-0.002783010529730683,-0.029168808002827142,130.40838266765513
4.32,0.024464604191586005,-0.013533587877796283,130.27369199405726
4.33,0.043039581448160565,-0.03900721830306812,130.18426174923923
4.34,0.07436463020140825,-0.0025404345845692683,130.10573763183805
4.35,0.10277722607470523,0.008475813568517468,130.04957107564135
4.36,0.0900271545780321,0.029884748658478483,129.95959552445248
4.37,0.045952034328111284,0.0032563752402206074,129.8810714070513
4.38,0.0668246133010914,0.04205573980455125,129.8472624120591
4.39,0.01634209671527901,-0.010646730395331205,129.8472624120591
4.4,-0.013817970885988393,0.004411118233206638,129.7801897284456
4.41,-0.0399006044553248,-0.04131670428904019,129.7016656110444
4.42,-0.03760300273891923,-0.02048514069557219,129.64549905484773
4.43,-0.043978038487255795,-0.03205566548529222,129.62314149364323
4.44,-0.0590580722878895,-0.03205566548529222,129.55552350365886
4.45,-0.03818549331490938,-0.02974617949932016,129.4546418250532
4.46,-0.04048309503131494,-0.030323550995813173,129.34285401903065
4.47,-0.05384801769153322,0.0507394071118062,129.26432990162945
4.48,0.08423460940568568,-0.055219809924592,129.1967119116451
4.49,0.8829586314383917,-0.044226656631364984,129.12963922803158
4.5,1.6312648580603955,0.005565861226192669,129.0511151106304
4.51,0.9548962175731744,-0.16002428396800417,128.96113955944153
4.52,0.07782721306979411,-0.27291195896231857,128.72556720723796
4.53,-0.016115572602393956,-0.11254125209641858,128.57942509985241
4.54,-0.04514301963923608,-0.047113514113830066,128.57942509985241
4.55,-0.06252065515627535,-0.022217255185051236,128.56851897243558
4.56,-0.05847558171189936,-0.014688330870782314,128.51235241623888
4.57,-0.07876567010888934,-0.02974617949932016,128.40001930384554
4.58,-0.0700606720565922,-0.013533587877796283,128.29913762523984
4.59,-0.08342559471681048,-0.026258855660502345,128.2320649416263
4.6,-0.053265527115543075,0.009630556561503498,128.18680451284646
4.61,-0.04918809308361208,0.005565861226192669,128.08592283424076
4.62,-0.07530308724050348,-0.0060046635635273606,128.0073987168396
4.63,-0.06659808918820635,-0.007736778053006407,127.9735897218474
4.64,-0.0317780969790178,0.039746253818579186,127.94032603322606
4.65,-0.06197052516784021,0.0067436990790384205,127.8503504820372
4.66,-0.04048309503131494,0.03279470100080328,127.79418392584051
4.67,-0.02773302353464181,0.035104186986775344,127.73801736964383
4.68,-0.016115572602393956,0.057690959929582106,127.67094468603031
4.69,-0.02252296893828553,0.061732560405033214,127.59242056862912
4.7,-0.00802542571364197,0.08547407634082602,127.53625401243244
4.71,0.009384570390952304,0.10921559227661881,127.45772989503125
4.72,0.022749493051170584,0.13411185120539765,127.50244501744027
4.73,0.029124528799507148,0.1427955185126526,127.78327779842368
4.74,0.06044957755275484,0.17868493073465844,128.52380385002658
4.75,0.08365211882969553,0.1804401400839972,129.87016527963448
4.76,0.12193469390726994,0.20649114200576205,132.21498267425332
4.77,0.1323548030999825,0.18621385504892735,135.6705891462765
4.78,0.1625148707012499,0.18505911205594133,139.36231327687412
4.79,0.13005720138357693,0.13122499372293256,142.71703807029164
4.8,0.0969846809023588,0.09588985813756001,145.16273714351618
4.81,0.045952034328111284,0.04551996878350934,146.31878664970037
4.82,0.02737705707153672,0.04147836830805823,146.39731076710154
4.83,-0.013235480309998248,0.011362671050982544,145.4773789194918
4.84,-0.02423808007870095,-0.004272549074048315,143.90635126509716
4.85,-0.04281305733527551,-0.01933039770258616,142.23444193209681
4.86,-0.02423808007870095,0.0015242607507415609,140.84336538007992
4.87,-0.05443050826752336,-0.02685932201685508,139.96814865487914
4.88,-0.04456052906324594,-0.024526741171023297,139.5978856290777
4.89,-0.03294307813099809,-0.01122410189182422,139.66495831269123
4.9,-0.03527304043495866,-0.021062512192065206,139.92343353247014
4.91,-0.05672810998392892,-0.03205566548529222,140.2598875632794
4.92,-0.05847558171189936,-0.029168808002827142,140.57398403288414
4.93,-0.03876798389089952,-0.014688330870782314,140.6863171452775
4.94,-0.05035307423559236,-0.02048514069557219,140.3160541194761
4.95,-0.06659808918820635,-0.026258855660502345,139.51936151167652
4.96,-0.04744062135564164,-0.023371998178037267,138.28478788809113
4.97,-0.06426812688424578,-0.03147829398879921,136.71430554006733
4.98,-0.03294307813099809,-0.005427292067034345,135.13237175825586
4.99,-0.07180814378456263,-0.03321040847827825,133.8977981346705
5.0,-0.04106558560730508,-0.016997816856754375,133.03403284325742
5.01,-0.05614561940793878,-0.037852475310082095,132.58524570005477
5.02,-0.03818549331490938,-0.015843073863768344,132.3496733478512
5.03,-0.0399006044553248,-0.026258855660502345,132.17026755184432
5.04,-0.03410805928297837,-0.02394936967453028,132.11410099564765
5.05,-0.043978038487255795,-0.006582035060020377,132.17026755184432
5.06,-0.03760300273891923,-0.028014065009841112,132.24879166924552
5.07,-0.053265527115543075,-0.025104112667516314,132.23734023545785
5.08,-0.05556312883194864,-0.04595877112084403,132.23734023545785
5.09,-0.06080554401585993,-0.03612036082060305,132.24879166924552
5.1,-0.041648076183295225,-0.02685932201685508,132.24879166924552
5.11,-0.037020512162929085,-0.02394936967453028,132.14790999063982
5.12,-0.032360587555007946,-0.022217255185051236,132.04648300566328
5.13,-0.0631031457322655,-0.03842984680657511,131.87852864344407
5.14,-0.023105459514275672,-0.011801473388317236,131.69857754106633
5.15,-0.05556312883194864,-0.03321040847827825,131.48590805643812
5.16,-0.027150532958651667,-0.02048514069557219,131.35121738284025
5.17,-0.04456052906324594,-0.02394936967453028,131.23888427044687
5.18,-0.043978038487255795,-0.037852475310082095,131.104193596849
5.19,-0.04572551021522622,-0.02685932201685508,131.0033119182433
5.2,-0.025985551806671378,-0.01933039770258616,130.92478780084213
5.21,-0.04456052906324594,-0.02974617949932016,130.83481224965325
5.22,-0.0399006044553248,-0.04073933279254717,130.76773956603975
5.23,-0.05384801769153322,-0.03321040847827825,130.75628813225205
5.24,-0.03410805928297837,-0.025681484164009328,130.79009712724425
5.25,-0.050935564811582505,-0.02685932201685508,130.83481224965325
5.26,-0.05556312883194864,-0.04364928513487197,130.85716981085776
5.27,-0.046308000791216365,-0.02163988368855822,130.81245468844875
5.28,-0.04106558560730508,-0.030323550995813173,130.72247913725988
5.29,-0.06543310803622607,-0.03612036082060305,130.74538200483522
5.3,-0.03064547641459252,-0.016997816856754375,130.75628813225205
5.31,-0.07472059666451335,-0.040161961296054156,130.6439550198587
5.32,-0.025985551806671378,-0.035542989324110034,130.55452477504068
5.33,-0.012070499158017963,-0.02974617949932016,130.53216721383617
5.34,0.015759606139288868,-0.022217255185051236,130.43074022885963
5.35,0.03782952685180429,-0.0019630630880762526,130.35221611145843
5.36,0.08769719227407152,0.034526815490282324,130.27369199405726
5.37,0.030289509951487437,0.02120108135122353,130.21752543786056
5.38,0.026212075919556436,0.011362671050982544,130.12809519304255
5.39,-0.004530482257701112,0.006143232722685685,129.99340451944468
5.4,-0.023105459514275672,-0.014688330870782314,129.83635628464228
5.41,-0.07530308724050348,-0.023371998178037267,129.72402317224893
5.42,-0.06659808918820635,-0.047113514113830066,129.7131170448321
5.43,-0.07934816068487947,-0.029168808002827142,129.69021417725673
5.44,-0.08226061356483019,-0.05464243842809899,129.61169005985556
5.45,-0.08747066816118647,-0.03958458979956114,129.51080838124986
5.46,-0.0631031457322655,-0.055797181421085015,129.49990225383303
5.47,-0.08980063046514704,0.02468840519004134,129.49990225383303
5.48,0.011132042118922733,-0.06159399124587489,129.52225981503753
5.49,0.7605708893053517,-0.10616707077513568,129.57842637123423
5.5,1.6144373525317912,0.0009468892542485454,129.66785661605223
5.51,1.047123892104947,-0.18780740037924806,129.7578321672411
5.52,0.13876219943587406,-0.30651498005821204,129.8249048508546
5.53,-0.0590580722878895,-0.12933121521443547,129.8472624120591
5.54,-0.07239063436055278,-0.08011606885337083,129.83635628464228
5.55,-0.10025310024541462,-0.02394936967453028,129.8249048508546
5.56,-0.08980063046514704,-0.037852475310082095,129.79164116223328
5.57,-0.14083327703939458,-0.047113514113830066,129.79164116223328
5.58,-0.10779311714573146,-0.02163988368855822,129.8025472896501
5.59,-0.12287315094636517,-0.01642044536026136,129.79164116223328
5.6,-0.08980063046514704,-0.022217255185051236,129.7801897284456
5.61,-0.10604564541776103,-0.0025404345845692683,129.7801897284456
5.62,-0.07705055896847392,0.0038337467367136227,129.7354746060366
5.63,-0.10892573771015673,-0.00020785373873748558,129.7578321672411
5.64,-0.08284310414082034,-0.007736778053006407,129.7801897284456
5.65,-0.11533313404604831,-0.00484992057054133,129.76873829465794
5.66,-0.05268303653955293,0.029884748658478483,129.74638073345344
5.67,-0.0631031457322655,0.05595884544010306,129.7131170448321
5.68,-0.05384801769153322,0.0403236253150722,129.66785661605223
5.69,-0.06951054206815706,0.06230993190152623,129.6345929274309
5.7,-0.0468581307796515,0.06230993190152623,129.60078393243873
5.71,-0.0631031457322655,0.09300300065509494,129.6345929274309
5.72,-0.03006298583860238,0.10979296377311182,129.7801897284456
5.73,-0.024820570654691093,0.15496650965872535,130.15045275424706
5.74,0.01983704017121987,0.1537886718058796,130.92478780084213
5.75,0.04420456260014085,0.20649114200576205,132.29350679165452
5.76,0.056954634096813984,0.17175647277674225,134.67213318126556
5.77,0.08015717537375468,0.1978074746985071,138.04921553588756
5.78,0.1201872221792995,0.16884652043441745,141.65096411529632
5.79,0.09756717147834895,0.15496650965872535,144.9833313475093
5.8,0.07899219422177439,0.08896140017964382,147.4072181659002
5.81,0.031422130515912715,0.0808551043688819,148.48419824831234
5.82,0.011714532694912875,0.03394944399378931,148.46184068710784
5.83,-0.03818549331490938,0.013094785540461592,147.4295757271047
5.84,-0.025403061230681236,-0.01006935889883819,145.70149983790768
5.85,-0.04918809308361208,0.0009468892542485454,143.91780269888483
5.86,-0.04977058365960222,-0.032633036981785234,142.52618084049706
5.87,-0.07355561551253306,-0.01875302620609314,141.74093966648516
5.88,-0.04048309503131494,-0.025104112667516314,141.48300975307708
5.89,-0.07818317953289919,-0.01875302620609314,141.51627344169844
5.9,-0.05964056286387964,-0.037852475310082095,141.71858210528066
5.91,-0.08572319643321605,-0.025681484164009328,141.97651201868874
5.92,-0.06080554401585993,-0.048845628603309106,142.14501168727878
5.93,-0.08342559471681048,-0.02685932201685508,142.1335602534911
5.94,-0.05964056286387964,-0.029168808002827142,141.84182134509086
5.95,-0.10025310024541462,-0.029168808002827142,141.13510428848016
5.96,-0.060223053439869785,-0.03147829398879921,139.96814865487914
5.97,-0.09967060966942447,-0.02974617949932016,138.4756451178857
5.98,-0.050935564811582505,-0.03436515147126428,136.9945930146799
5.99,-0.08980063046514704,-0.02974617949932016,135.8838039372756
6.0,-0.05035307423559236,-0.019907769199079172,135.18853831445256
6.01,-0.06718057976419649,-0.007736778053006407,134.71684830367457
6.02,-0.06892805149216692,-0.04307191363837896,133.46046242525554
6.03,-0.07705055896847392,-0.022217255185051236,132.46200646024457
6.04,-0.0631031457322655,-0.03900721830306812,132.28205535786685
6.05,-0.07355561551253306,-0.013533587877796283,132.36057947526803
6.06,-0.06718057976419649,-0.03669773231709606,132.51817301644127
6.07,-0.08572319643321605,-0.025104112667516314,132.6523183836683
6.08,-0.04514301963923608,-0.027436693513348095,132.70848493986497
6.09,-0.10313319253781032,-0.04595877112084403,132.56288813885027
6.1,-0.057310600559919066,-0.040161961296054156,132.4952701488659
6.11,-0.05384801769153322,-0.005427292067034345,132.33822191406352
6.12,-0.05210054596356279,-0.03900721830306812,132.12500712306448
6.13,-0.07646806839248377,-0.03090092249230619,131.90088620464857
6.14,-0.057893091135909215,-0.04364928513487197,131.80000452604287
6.15,-0.06080554401585993,-0.016997816856754375,131.59769586246065
6.16,-0.06138803459185007,-0.05695192441407105,131.3059569540604
6.17,-0.05384801769153322,-0.007736778053006407,131.0371209132355
6.18,-0.046308000791216365,-0.03958458979956114,130.82390612223642
6.19,-0.07180814378456263,-0.03378777997477127,130.63304889244185
6.2,-0.05443050826752336,-0.05291032393861994,130.45364309643497
6.21,-0.057310600559919066,-0.006582035060020377,130.32985855025393
6.22,-0.05268303653955293,-0.05291032393861994,130.22897687164823
6.23,-0.0700606720565922,-0.018152559849740405,130.11664375925488
6.24,-0.04744062135564164,-0.05637455291757803,129.97104695824015
6.25,-0.05384801769153322,-0.010646730395331205,129.8587138458468
6.26,-0.0399006044553248,-0.04364928513487197,129.7578321672411
6.27,-0.07993065126086962,-0.04073933279254717,129.6345929274309
6.28,-0.04977058365960222,-0.04826825710681609,129.52225981503753
6.29,-0.053265527115543075,-0.02163988368855822,129.38756914143966
6.3,-0.05210054596356279,-0.050577743092788154,129.2414270340541
6.31,-0.05847558171189936,-0.022217255185051236,129.0734726718349
6.32,-0.05672810998392892,-0.0586840389035501,129.0173061156382
6.33,-0.03760300273891923,0.004411118233206638,128.9949485544337
6.34,-0.05151805538757265,-0.055219809924592,128.94968812565386
6.35,-0.06776307034018664,-0.030323550995813173,128.82644888584366
6.36,-0.03064547641459252,-0.04073933279254717,128.70320964603346
6.37,-0.050935564811582505,-0.03900721830306812,128.6132340948446
6.38,0.004757006370586168,-0.047113514113830066,128.51235241623888
6.39,-0.023655589502710808,-0.04131670428904019,128.40001930384554
6.4,0.05520716236884355,-0.012956216381303268,128.25442250283083
6.41,0.05057959834847742,0.010785299554489529,128.19825594663413
6.42,0.04650216431654641,-0.0013625967317235166,128.16444695164196
6.43,0.0012620629146453098,0.02120108135122353,128.15354082422513
6.44,0.0175070778672593,0.0021016322472345765,128.08592283424076
6.45,-0.060223053439869785,-0.03147829398879921,127.94032603322606
6.46,-0.05268303653955293,-0.044226656631364984,127.79418392584051
6.47,-0.09792313794145403,-0.04538139962435102,127.68185081344714
6.48,-0.06080554401585993,-0.048845628603309106,127.65949325224264
6.49,-0.08400808529280063,-0.030323550995813173,127.61477812983362
6.5,-0.0741381060885232,-0.062171362742367904,127.52480257864477
6.51,-0.09908811909343432,-0.03378777997477127,127.3901119050469
6.52,-0.06776307034018664,-0.02163988368855822,127.3115877876457
6.53,-0.060223053439869785,0.0333720724972963,127.27832409902436
6.54,0.610935532450995,-0.12644435773197038,127.23306367024452
6.55,1.434027076912622,-0.009468892542485454,127.13218199163882
6.56,1.3423818929568396,-0.1542274741432143,127.03130031303313
6.57,0.14801732747660634,-0.347023364252162,126.90806107322292
6.58,-0.020193006634324957,-0.1617563984574832,126.84044308323857
6.59,-0.07064316263258234,-0.065635591721326,126.81808552203405
6.6,-0.09038312104113719,-0.058106667407057076,126.79572796082955
6.61,-0.11704824518646373,-0.02163988368855822,126.77337039962505
6.62,-0.09442819448551318,-0.035542989324110034,126.68339484843618
6.63,-0.11125570001411732,-0.0013625967317235166,126.5487041748383
6.64,-0.11996069806641445,-0.05233295244212692,126.3807498126191
6.65,-0.11416815289406802,0.0009468892542485454,126.34694081762692
6.66,-0.0932632133335329,-0.013533587877796283,126.36929837883143
6.67,-0.1124206811660976,0.0015242607507415609,126.23460770523356
6.68,-0.07876567010888934,-0.01006935889883819,126.09991703163567
6.69,-0.10313319253781032,0.007898442072024451,125.99903535302998
6.7,-0.08284310414082034,-0.0031178060810622835,125.90905980184112
6.71,-0.09559317563749346,0.03279470100080328,125.80817812323542
6.72,-0.05210054596356279,0.037413672972747405,125.66258132222072
6.73,-0.08980063046514704,0.04494259728701633,125.55024820982734
6.74,-0.07122565320857248,0.02468840519004134,125.47172409242616
6.75,-0.06951054206815706,0.08316459035485395,125.41555753622947
6.76,-0.017863044330364387,0.09127088616561589,125.39319997502497
6.77,-0.03876798389089952,0.1329571082124116,125.50553308741834
6.78,0.0030095346426157387,0.13526659419838366,125.7634630008264
6.79,-0.0039479916817109694,0.1740659587627143,126.29077426143023
6.8,0.06216468869317026,0.1804401400839972,127.28923022644119
6.81,0.06103206812874498,0.20242644667045123,129.1967119116451
6.82,0.10685466010663623,0.1775301877416724,132.3273157866467
6.83,0.11031724297502209,0.20533639901277603,135.9061614984801
6.84,0.11785725987533893,0.1265829268911287,139.30614672067745
6.85,0.07611210192937869,0.11789925958387376,142.20063293710464
6.86,0.06970470559348711,0.06579725574034405,143.95106638750616
6.87,0.025629585343566293,0.064065141250865,144.39985353070878
6.88,0.008219589238972019,0.004411118233206638,143.74930303029475
6.89,-0.06426812688424578,-0.007159406556513392,142.20063293710464
6.9,-0.027150532958651667,-0.035542989324110034,140.3160541194761
6.91,-0.06776307034018664,-0.02394936967453028,138.59942966406675
6.92,-0.03294307813099809,-0.044804028127858,137.34249847927686
6.93,-0.07355561551253306,-0.022217255185051236,136.65813898387066
6.94,-0.05210054596356279,-0.05986187675639584,136.4334727590839
6.95,-0.09850562851744418,-0.03612036082060305,136.54580587147728
6.96,-0.03818549331490938,-0.04364928513487197,136.78137822368086
6.97,-0.08805315873717662,-0.027436693513348095,136.9945930146799
6.98,-0.06543310803622607,-0.048845628603309106,137.08456856586878
6.99,-0.08226061356483019,-0.012956216381303268,137.03985344345978
7.0,-0.08630568700920618,-0.06101661974938188,136.56816343268179
7.01,-0.11183819059010745,-0.034965617827617014,135.5249923452618
7.02,-0.057893091135909215,-0.055219809924592,133.66222578246692
7.03,-0.08459057586879076,-0.015265702367275329,131.9117923320654
7.04,-0.04514301963923608,-0.03205566548529222,130.87952737206226
7.05,-0.10950822828614688,-0.035542989324110034,130.30750098904943
7.06,-0.0590580722878895,-0.04247144728202622,130.08338007063352
7.07,-0.08051314183685976,-0.008314149549499423,129.95959552445248
7.08,-0.037020512162929085,-0.03436515147126428,129.91488040204348
7.09,-0.08805315873717662,-0.01875302620609314,129.93723796324798
7.1,-0.06659808918820635,-0.062171362742367904,130.02721351443685
7.11,-0.09559317563749346,-0.029168808002827142,130.02721351443685
7.12,-0.043978038487255795,-0.046536142617337045,130.09428619805036
7.13,-0.0700606720565922,-0.00020785373873748558,130.18426174923923
7.14,-0.03643802158693894,-0.04364928513487197,130.17281031545156
7.15,-0.06834556091617677,-0.022217255185051236,130.11664375925488
7.16,-0.05151805538757265,-0.05986187675639584,129.981953085657
7.17,-0.10083559082140475,-0.041894075785533204,129.83635628464228
7.18,-0.034690549858968515,-0.04826825710681609,129.60078393243873
7.19,-0.07588557781649363,-0.029168808002827142,129.42137813643183
7.2,-0.046308000791216365,-0.05752929591056406,129.29759359025078
7.21,-0.06138803459185007,-0.004272549074048315,129.15199678923608
7.22,-0.06776307034018664,-0.07085503004962286,128.9725909932292
7.23,-0.0700606720565922,-0.01933039770258616,128.7926398908515
7.24,-0.05443050826752336,-0.05926141040004311,128.64704308983676
7.25,-0.08400808529280063,-0.03378777997477127,128.4561858600422
7.26,-0.028898004686622094,-0.041894075785533204,128.3105890590275
7.27,-0.06426812688424578,-0.01933039770258616,128.20916207405097
7.28,-0.029480495262612236,-0.040161961296054156,128.10828039544526
7.29,-0.0660155986122162,-0.02394936967453028,128.0073987168396
7.3,-0.04048309503131494,-0.062171362742367904,127.90651703823389
7.31,-0.07876567010888934,-0.03321040847827825,127.8279929208327
7.32,-0.03876798389089952,-0.05637455291757803,127.73801736964383
7.33,-0.06197052516784021,-0.009468892542485454,127.63713569103814
7.34,-0.002783010529730683,-0.03378777997477127,127.50244501744027
7.35,-0.046308000791216365,-0.04247144728202622,127.36775434384239
7.36,0.021002021323200157,-0.05926141040004311,127.28923022644119
7.37,0.02329962303960572,0.006143232722685685,127.1883485478355
7.38,0.07611210192937869,-0.014688330870782314,127.0874668692298
7.39,0.04012712856820985,0.04090099681156522,126.98658519062411
7.4,0.036082055123833855,-0.008314149549499423,126.84044308323857
7.41,-0.00802542571364197,0.0333720724972963,126.67194341464851
7.42,-0.002783010529730683,-0.04364928513487197,126.58251316983049
7.43,-0.07588557781649363,-0.03436515147126428,126.53779804742148
7.44,-0.031227966990582667,-0.044804028127858,126.5039890524293
7.45,-0.07472059666451335,-0.01875302620609314,126.43637106244493
7.46,-0.04744062135564164,-0.065635591721326,126.33548938383925
7.47,-0.07646806839248377,-0.028591436506334125,126.23460770523356
7.48,-0.032360587555007946,-0.06274873423886092,126.16753502162004
7.49,-0.08747066816118647,-0.00484992057054133,126.09991703163567
7.5,-0.019610516058334814,0.06983885621579515,125.98758391924231
7.51,0.5366679840122518,-0.040161961296054156,125.9428687968333
7.52,1.3209268234078693,-0.08995447915361181,125.90905980184112
7.53,1.1735890682699182,-0.175082132596542,125.90905980184112
7.54,0.07669459250536882,-0.3927742816342686,125.93141736304563
7.55,-0.046308000791216365,-0.13455065354273232,125.97667779182548
7.56,-0.04456052906324594,-0.10154809880319156,125.95432023062097
7.57,-0.08747066816118647,-0.032633036981785234,125.89815367442428
7.58,-0.03352556870698823,-0.025681484164009328,125.87579611321978
7.59,-0.10083559082140475,-0.025104112667516314,125.83053568443992
7.6,-0.05443050826752336,-0.040161961296054156,125.78582056203092
7.61,-0.08167812298884006,0.0026790037437275918,125.69584501084205
7.62,-0.04223056675928537,-0.03958458979956114,125.58405720481953
7.63,-0.06776307034018664,0.009053185065010483,125.55024820982734
7.64,-0.029480495262612236,-0.01122410189182422,125.51643921483517
7.65,-0.06951054206815706,-0.0013625967317235166,125.51643921483517
7.66,-0.010323027430047534,-0.009468892542485454,125.49408165363066
7.67,-0.05614561940793878,0.02353366219705531,125.4041061024418
7.68,-0.01902802548234467,-0.012956216381303268,125.24705786763943
7.69,-0.014400461461978535,0.06464251274735801,125.10146106662471
7.7,0.0175070778672593,0.025265776686534357,125.03384307664035
7.71,-0.015565442613958822,0.06579725574034405,124.96677039302683
7.72,0.028542038223517006,0.05595884544010306,124.89969770941332
7.73,0.011714532694912875,0.11325719275206991,124.83207971942896
7.74,0.06857208502906183,0.10457352544481496,124.80972215822446
7.75,0.05290956065243799,0.15785336714119044,124.84353115321665
7.76,0.1253972767756558,0.16247233911313455,125.00057938801902
7.77,0.10219473549871509,0.1978074746985071,125.35939098003279
7.78,0.18108984795782446,0.18563648355243434,126.12227459284018
7.79,0.15905228783286404,0.20995537098472014,127.46863602244808
7.8,0.2106674249831017,0.17117910128024924,129.7016656110444
7.81,0.1695047576131316,0.18159488307698324,132.86553317466735
7.82,0.15442472381249792,0.09415774364808097,136.07466116707016
7.83,0.08015717537375468,0.09127088616561589,138.935883694876
7.84,0.06798959445307169,0.025265776686534357,140.9780560536778
7.85,0.021002021323200157,0.04958466411882017,141.88653646749987
7.86,0.028542038223517006,-0.01757518835324739,141.55008243669062
7.87,-0.02773302353464181,-0.01006935889883819,140.11374545589385
7.88,0.009967060966942446,-0.03147829398879921,138.03830940847072
7.89,-0.05556312883194864,-0.02163988368855822,135.9623280546768
7.9,-0.0004530482257701112,-0.03147829398879921,134.42510939527432
7.91,-0.054980638255958496,-0.014110959374289299,133.4942714202477
7.92,-0.02135798778630524,-0.04073933279254717,133.03403284325742
7.93,-0.06776307034018664,-0.025681484164009328,132.77610292984934
7.94,-0.021940478362295388,-0.04247144728202622,132.6299608224638
7.95,-0.04048309503131494,0.009630556561503498,132.39438847026022
7.96,-0.010905518006037677,-0.01642044536026136,132.09174343444315
7.97,-0.07064316263258234,-0.02163988368855822,131.62005342366515
7.98,-0.031227966990582667,-0.03669773231709606,131.05947847444
7.99,-0.05151805538757265,-0.0007852252352305011,130.45364309643497
8.0,-0.008575555702077105,-0.021062512192065206,129.89252284083898
8.01,-0.048023111931631786,-0.004272549074048315,129.38756914143966
8.02,-0.025403061230681236,-0.04307191363837896,129.49990225383303
8.03,-0.03527304043495866,0.0009468892542485454,129.8587138458468
8.04,-0.004530482257701112,-0.037852475310082095,129.99340451944468
8.05,-0.04977058365960222,-0.01933039770258616,129.95959552445248
8.06,0.0175070778672593,-0.01757518835324739,129.91488040204348
8.07,-0.0358555310109488,-0.01006935889883819,129.94868939703565
8.08,-0.020193006634324957,-0.048845628603309106,130.07192863684585
8.09,-0.03294307813099809,-0.014688330870782314,130.17281031545156
8.1,0.008219589238972019,-0.040161961296054156,130.18426174923923
8.11,-0.025985551806671378,-0.01122410189182422,130.11664375925488
8.12,0.018672059019239583,-0.02394936967453028,129.97104695824015
8.13,-0.025985551806671378,-0.01642044536026136,129.79164116223328
8.14,0.004757006370586168,-0.044226656631364984,129.69021417725673
8.15,-0.028898004686622094,-0.019907769199079172,129.60078393243873
8.16,-0.0039479916817109694,-0.04595877112084403,129.52225981503753
8.17,-0.04048309503131494,-0.02163988368855822,129.37611770765199
8.18,0.008802079814962161,-0.03842984680657511,129.1852604778574
8.19,-0.03294307813099809,-0.023371998178037267,129.0734726718349
8.2,0.023882113615595862,-0.025104112667516314,128.93878199823703
8.21,-0.031227966990582667,-0.011801473388317236,128.90497300324483
8.22,-0.027150532958651667,-0.08011606885337083,128.90497300324483
8.23,-0.0207754972103151,-0.00484992057054133,128.90497300324483
8.24,0.008802079814962161,-0.03900721830306812,128.894066875828
8.25,-0.027150532958651667,-0.02163988368855822,128.84880644704816
8.26,0.027959547647526863,-0.05117820944914089,128.74792476844246
8.27,0.047084654892536555,-0.008891521045992438,128.6694006510413
8.28,0.0668246133010914,-0.044804028127858,128.54616141123108
8.29,0.07261715847343783,0.0038337467367136227,128.4561858600422
8.3,0.1161097881473685,-0.00020785373873748558,128.40001930384554
8.31,0.05870210582478441,0.026997891176013405,128.29913762523984
8.32,0.05753712467280413,-0.009468892542485454,128.22061350783864
8.33,0.016924587291269156,0.02120108135122353,128.19825594663413
8.34,0.015177115563298725,-0.023371998178037267,128.17589838542963
8.35,-0.0358555310109488,-0.004272549074048315,128.09737426802843
8.36,-0.03818549331490938,-0.058106667407057076,127.9959472830519
8.37,-0.05268303653955293,-0.015843073863768344,127.92887459943839
8.38,-0.037020512162929085,-0.05986187675639584,127.89506560444622
8.39,-0.04977058365960222,-0.02163988368855822,127.8279929208327
8.4,-0.0317780969790178,-0.05117820944914089,127.73801736964383
8.41,-0.07588557781649363,0.029884748658478483,127.65949325224264
8.42,0.08827968285006167,-0.08649025017465371,127.61477812983362
8.43,0.8539635449891047,-0.06970028705663683,127.55861157363694
8.44,1.6608424350856728,0.006143232722685685,127.51389645122794
8.45,1.043078818660571,-0.1409017400041555,127.46863602244808
8.46,0.12364980504768536,-0.28912455058384245,127.43537233382675
8.47,-0.029480495262612236,-0.1027028417961776,127.30068166022888
8.48,-0.03876798389089952,-0.07722921137090576,127.24451510403219
8.49,-0.08572319643321605,-0.016997816856754375,127.22215754282767
8.5,-0.046308000791216365,-0.007159406556513392,127.14363342542649
8.51,-0.11300317174208774,-0.022217255185051236,127.09837299664663
8.52,-0.07993065126086962,-0.04826825710681609,127.05365787423763
8.53,-0.10255070196182017,-0.011801473388317236,126.96368232304876
8.54,-0.057893091135909215,-0.022217255185051236,126.90806107322292
8.55,-0.06892805149216692,0.02757526267250642,126.91896720063976
8.56,-0.06543310803622607,-0.02279462668154425,126.91896720063976
8.57,-0.08747066816118647,0.015427366386293374,126.93041863442743
8.58,-0.06426812688424578,-0.018152559849740405,126.88515820564757
8.59,-0.07297312493654291,0.03221732950431026,126.80663408824638
8.6,-0.04048309503131494,0.013094785540461592,126.73956140463287
8.61,-0.08051314183685976,0.031039491651464513,126.69484628222386
8.62,-0.03294307813099809,0.035104186986775344,126.67194341464851
8.63,-0.06834556091617677,0.05884570292256814,126.6272282922395
8.64,-0.0207754972103151,0.05595884544010306,126.5487041748383
8.65,-0.05035307423559236,0.09937718197637782,126.53779804742148
8.66,0.0030095346426157387,0.10575136329766072,126.64958585344401
8.67,-0.01844553490635453,0.13411185120539765,127.05365787423763
8.68,0.047667145468526705,0.15205655731640055,127.88415947702937
8.69,0.05462467179285341,0.19258803637021024,129.35376014644748
8.7,0.1051071883786658,0.1798627685875042,131.92324376585307
8.71,0.09348973744641795,0.18159488307698324,135.42411066665613
8.72,0.14685234632462604,0.16595966295195236,138.96969268986817
8.73,0.12423229562367549,0.1509018143234145,142.22353580467998
8.74,0.10856977124705165,0.08025463801252915,144.56835319929885
8.75,0.06103206812874498,0.08025463801252915,145.65678471549867
8.76,0.03782952685180429,0.014849994889800358,145.645333281711
8.77,-0.010905518006037677,0.018891595365251465,144.68068631169223
8.78,-0.023105459514275672,-0.02685932201685508,143.14346765228976
8.79,-0.05443050826752336,-0.01757518835324739,141.51627344169844
8.8,-0.03760300273891923,-0.04073933279254717,140.19226957329505
8.81,-0.06080554401585993,-0.021062512192065206,139.37321940429095
8.82,-0.04744062135564164,-0.04538139962435102,139.0367653734817
8.83,-0.04456052906324594,0.0067436990790384205,139.00295637848953
8.84,-0.07239063436055278,-0.055219809924592,139.22762260327625
8.85,-0.09501068506150333,-0.04538139962435102,139.51936151167652
8.86,-0.05847558171189936,-0.046536142617337045,139.77729142508457
8.87,-0.07763304954446405,-0.016997816856754375,139.90053066489477
8.88,-0.07472059666451335,-0.06332610573535394,139.7658399912969
8.89,-0.07472059666451335,-0.019907769199079172,139.24998016448075
8.9,-0.05556312883194864,-0.04307191363837896,138.12773965328876
8.91,-0.10083559082140475,-0.03958458979956114,136.54580587147728
8.92,-0.06485061746023592,-0.05752929591056406,134.8967994060523
8.93,-0.07122565320857248,-0.01757518835324739,133.56134410386125
8.94,-0.04977058365960222,-0.05233295244212692,132.6299608224638
8.95,-0.05847558171189936,-0.01757518835324739,132.02412544445878
8.96,-0.043978038487255795,-0.046536142617337045,131.6876714136495
8.97,-0.046308000791216365,0.0032563752402206074,131.51917174505945
8.98,-0.0468581307796515,-0.048845628603309106,131.45209906144595
8.99,-0.06426812688424578,-0.01933039770258616,131.48590805643812
9.0,-0.054980638255958496,-0.050577743092788154,131.50826561764262
9.01,-0.057310600559919066,-0.02163988368855822,131.56443217383932
9.02,-0.05384801769153322,-0.04942300009980213,131.57533830125615
9.03,-0.06718057976419649,-0.011801473388317236,131.49681418385495
9.04,-0.05151805538757265,-0.04364928513487197,131.41829006645375
9.05,-0.08459057586879076,-0.03378777997477127,131.3059569540604
9.06,-0.05964056286387964,-0.05406506693160597,131.09274216306133
9.07,-0.08572319643321605,-0.03612036082060305,130.81245468844875
9.08,-0.05614561940793878,-0.05175558094563391,130.62159745865418
9.09,-0.06543310803622607,-0.009468892542485454,130.4645492238518
9.1,-0.05210054596356279,-0.040161961296054156,130.29604955526176
9.11,-0.07180814378456263,-0.025681484164009328,130.09428619805036
9.12,-0.048605602507621935,-0.03205566548529222,129.9034289682558
9.13,-0.08051314183685976,-0.02685932201685508,129.7016656110444
9.14,-0.037020512162929085,-0.02685932201685508,129.51080838124986
9.15,-0.07297312493654291,-0.03321040847827825,129.3199511514553
9.16,-0.04744062135564164,-0.03612036082060305,129.1852604778574
9.17,-0.053265527115543075,-0.01757518835324739,129.1629029166529
9.18,-0.053265527115543075,-0.05233295244212692,129.20816334543278
9.19,-0.06834556091617677,-0.025104112667516314,129.12963922803158
9.2,-0.04223056675928537,-0.03378777997477127,128.96113955944153
9.21,-0.04744062135564164,-0.010646730395331205,128.80409132463916
9.22,-0.04456052906324594,-0.05175558094563391,128.68085208482896
9.23,-0.0399006044553248,-0.010646730395331205,128.60232796742775
9.24,-0.031227966990582667,-0.04073933279254717,128.5570675386479
9.25,-0.0631031457322655,-0.02163988368855822,128.5009009824512
9.26,-0.03294307813099809,-0.035542989324110034,128.4114707376332
9.27,-0.03527304043495866,-0.02048514069557219,128.332946620232
9.28,0.0030095346426157387,-0.04307191363837896,128.3105890590275
9.29,0.011714532694912875,-0.008891521045992438,128.22061350783864
9.3,0.03841201742779443,-0.025681484164009328,128.0744714004531
9.31,0.06507714157312097,0.034526815490282324,127.92887459943839
9.32,0.0627471792691604,0.01831422386875845,127.8279929208327
9.33,0.007637098662981874,0.030462120154971496,127.77182636463601
9.34,0.032587111667893,0.026997891176013405,127.65949325224264
9.35,-0.05614561940793878,-0.02974617949932016,127.55861157363694
9.36,-0.04048309503131494,-0.03727510381358908,127.42392090003906
9.37,-0.07180814378456263,-0.012378844884810251,127.33394534885021
9.38,-0.05384801769153322,-0.03727510381358908,127.30068166022888
9.39,-0.06543310803622607,-0.02394936967453028,127.21070610904
9.4,-0.06776307034018664,-0.06101661974938188,127.13218199163882
9.41,-0.08459057586879076,-0.029168808002827142,127.07601543544213
9.42,-0.05672810998392892,-0.03090092249230619,127.01984887924544
9.43,-0.039318113879334655,0.07041622771228817,126.90806107322292
9.44,0.5146304238872913,-0.17681424708602106,126.71720384342836
9.45,1.417199571384018,0.05478100758725731,126.57106173604282
9.46,1.494929702691147,-0.13628276803221137,126.48163149122479
9.47,0.2651950150132901,-0.2868150645978704,126.4254649350281
9.48,-0.0207754972103151,-0.16233376995397622,126.39165594003593
9.49,-0.06138803459185007,-0.07200977304260889,126.36929837883143
9.5,-0.08863564931316675,-0.048845628603309106,126.32458325642241
9.51,-0.11358566231807789,-0.03436515147126428,126.25696526643806
9.52,-0.1083756077217216,-0.03900721830306812,126.18989258282454
9.53,-0.12112567921839473,-0.015265702367275329,126.18989258282454
9.54,-0.10138572080983989,-0.026258855660502345,126.16753502162004
9.55,-0.11125570001411732,-0.013533587877796283,126.09991703163567
9.56,-0.10025310024541462,-0.021062512192065206,126.02139291423448
9.57,-0.11009071886213703,0.0015242607507415609,125.93141736304563
9.58,-0.0973406473654639,-0.0019630630880762526,125.8419871182276
9.59,-0.09096561161712734,0.025265776686534357,125.7411054396219
9.6,-0.08517306644478091,0.0021016322472345765,125.66258132222072
9.61,-0.08342559471681048,0.0333720724972963,125.65112988843305
9.62,-0.08572319643321605,0.014249528533447622,125.64022376101622
9.63,-0.09617566621348361,0.03394944399378931,125.59496333223636
9.64,-0.06951054206815706,0.04725208327298839,125.52789064862284
9.65,-0.050935564811582505,0.09358037215158795,125.46027265863849
9.66,-0.03527304043495866,0.09937718197637782,125.43791509743397
9.67,-0.03760300273891923,0.12369606940866364,125.51643921483517
9.68,-0.02656804238266152,0.12196395491918459,125.77436912824324
9.69,-0.0004530482257701112,0.17637544474868636,126.35784694504375
9.7,0.023882113615595862,0.1769528162451794,127.54716013984927
9.71,0.05349205122842813,0.1972301032020141,129.53316594245436
9.72,0.09177462630600253,0.19316540786670325,132.70848493986497
9.73,0.10973475239903194,0.19374277936319628,136.46728175407608
9.74,0.14571972576020079,0.1729112157697283,140.04667277228035
9.75,0.07957468479776453,0.11443503060491567,142.9411589887075
9.76,0.0517445795004577,0.06230993190152623,144.53454420430666
9.77,0.015759606139288868,0.049007292622327156,144.89390110269127
9.78,-0.011488008582027821,0.021778452847716543,144.23189916848958
9.79,-0.010323027430047534,0.025843148183027374,142.7284895040793
9.8,-0.05035307423559236,-0.014110959374289299,140.8995319362766
9.81,-0.053265527115543075,-0.012378844884810251,139.45174352169215
9.82,-0.06252065515627535,-0.030323550995813173,138.48709655167337
9.83,-0.04977058365960222,-0.013533587877796283,138.09447596466742
9.84,-0.04977058365960222,-0.035542989324110034,138.09447596466742
9.85,-0.06368563630825563,-0.025681484164009328,138.34095444428783
9.86,-0.05614561940793878,-0.03378777997477127,138.76738402628595
9.87,-0.04223056675928537,0.0026790037437275918,139.21617116948858
9.88,-0.09384570390952304,-0.05637455291757803,139.58643419529002
9.89,-0.06426812688424578,-0.013533587877796283,139.6540521852744
9.9,-0.06080554401585993,-0.013533587877796283,139.33995571566962
9.91,-0.08688817758519633,-0.03900721830306812,138.52090554666555
9.92,-0.08109563241284991,-0.04595877112084403,137.21925923946665
9.93,-0.057310600559919066,-0.013533587877796283,135.603516462663
9.94,-0.054980638255958496,-0.02279462668154425,134.44801226284966
9.95,-0.039318113879334655,-0.006582035060020377,133.7745588948603
9.96,-0.06718057976419649,-0.040161961296054156,133.44901099146787
9.97,-0.048023111931631786,-0.0060046635635273606,133.35958074664984
9.98,-0.048023111931631786,-0.024526741171023297,133.37048687406667
9.99,-0.053265527115543075,-0.02279462668154425,133.4157473028465
