time_s,ECG,NIBP
0.0,0.13719982919415027,54.74715810958795
0.01,0.12783612247527124,54.350793755894394
0.02,0.07676625077287914,54.86935135928153
0.03,0.013615044826875866,54.74715810958795
0.04,-0.03866565102019885,55.90723027386638
0.05,-0.07434460248351386,55.96832689871317
0.06,-0.07262254147774301,55.84613364901959
0.07,-0.07956459990725678,55.96832689871317
0.08,-0.0882556265457566,59.26372610138695
0.09,-0.08639902952390989,64.0857772174199
0.1,-0.10410396923949156,68.32741039740834
0.11,-0.09573582903957378,71.16611232935236
0.12,-0.0692591410758468,74.00405055348578
0.13,-0.07851521898186517,73.9124056162156
0.14,-0.08405810284419013,73.54582586713485
0.15,-0.07792326051113144,73.60692249198163
0.16,-0.07628192111500609,73.48472924228805
0.17,-0.07972604312654781,73.63747080440504
0.18,-0.07418315926422285,73.1494615134413
0.19,-0.05572481785861644,72.72254884732435
0.2,-0.04606513190437052,72.3559690982436
0.21,-0.04910564586768469,71.95960474455005
0.22,-0.034252869692911025,71.6235733078927
0.23,0.005515976659109787,70.8606292051184
0.24,0.03218101504534296,69.97549185265052
0.25,0.026180708728360112,68.87728002102946
0.26,-0.014045560078318581,67.99214266856158
0.27,-0.0681021313375945,66.86261881670653
0.28,-0.07943006389118094,65.97748146423865
0.29,-0.08389665962489912,64.94036625746439
0.3,-0.09140376932193145,64.54323819596024
0.31,-0.07854212618508034,63.65810084349236
0.32,-0.05803883733512103,63.65810084349236
0.33,-0.07943006389118094,63.231188177375415
0.34,-0.1385990037613391,63.292284802222206
0.35,-0.15143373969497506,63.200639864952024
0.36,0.39203795084502246,63.65810084349236
0.37,1.3318527447444697,63.65810084349236
0.38,1.0830687438170106,63.200639864952024
0.39,0.09877634300288796,63.170091552528625
0.4,-0.12420365004122332,63.353381427068996
0.41,-0.026799574402309016,63.231188177375415
0.42,-0.05559028184254059,63.322833114645604
0.43,-0.08117903210016697,63.261736489798814
0.44,-0.0704968724237446,63.261736489798814
0.45,-0.06142914494023242,63.261736489798814
0.46,-0.06608409109645677,63.261736489798814
0.47,-0.06745635846043042,63.200639864952024
0.48,-0.06551903982893821,61.27838730570987
0.49,-0.056397497938995685,61.27838730570987
0.5,-0.04878275942910266,60.69796936966536
0.51,-0.04060296965169107,60.48489489051217
0.52,-0.03506008578936611,60.11831514143143
0.53,-0.021687205791426776,59.69140247531448
0.54,0.0115431901793078,58.806265122846604
0.55,0.0417330721867282,58.531330311036044
0.56,0.08247057785449512,57.737837895838354
0.57,0.12638313350165206,57.21928029245122
0.58,0.13625807708161933,56.42578787725352
0.59,0.1521064197753543,55.87668196144299
0.6,0.14876992657667326,55.90723027386638
0.61,0.08742150324608634,55.93777858628978
0.62,0.021714112994641946,55.93777858628978
0.63,-0.021606484181781266,57.12763535518103
0.64,-0.05405657125927592,61.18674236843968
0.65,-0.07116955250412385,61.21729068086308
0.66,-0.07313377833883124,66.03857808908545
0.67,-0.07789635330791626,69.91439522780372
0.68,-0.07843449737221966,72.84397838920734
0.69,-0.07178841817807274,73.9124056162156
0.7,-0.06985109954658053,74.76699465626008
0.71,-0.07482893214138693,74.70589803141328
0.72,-0.07552851942498133,74.6448014065665
0.73,-0.07682006517930948,75.16335900995364
0.74,-0.07340285037098293,75.19390732237703
0.75,-0.06094481528235936,75.19390732237703
0.76,-0.06864027540189789,75.16335900995364
0.77,-0.075474705018551,74.18734042802615
0.78,-0.06826357455688552,73.8818573037922
0.79,-0.05663966276793221,73.51527755471146
0.8,-0.04905183146125436,73.60692249198163
0.81,-0.04361657641179008,73.45494463767525
0.82,-0.028898336253092252,73.51527755471146
0.83,0.013184529575433151,73.51527755471146
0.84,0.03021678921063557,73.18000982586469
0.85,-0.003820822856554097,72.78288176436055
0.86,-0.04111420651277929,71.95960474455005
0.87,-0.07945697109439612,71.28754187123535
0.88,-0.097673147671066,66.49680277543638
0.89,-0.09406758244023325,65.70331036023869
0.9,-0.08171717616447037,65.21453736146435
0.91,-0.08427336046991149,64.97091456988778
0.92,-0.08656047274320092,64.81817300777081
0.93,-0.0941213968466636,64.94036625746439
0.94,-0.1507610596145958,64.97091456988778
0.95,-0.10765572006389396,64.8487213201942
0.96,0.5832136296888032,64.87926963261759
0.97,1.3786174639324345,64.87926963261759
0.98,0.8935344043693553,64.90981794504098
0.99,-0.011946798227535345,64.90981794504098
1.0,-0.13752271563273233,64.87926963261759
1.01,-0.05343770558532702,64.8487213201942
1.02,-0.09430974726916978,64.97091456988778
1.03,-0.1180957149113798,64.87926963261759
1.04,-0.10434613406842808,64.81817300777081
1.05,-0.09293747990519613,64.94036625746439
1.06,-0.09552057141385242,64.94036625746439
1.07,-0.10265098026587238,62.86460842829467
1.08,-0.09239933584089273,62.437695762177725
1.09,-0.0823091346352041,61.552558409709846
1.1,-0.08058707362943324,61.21729068086308
1.11,-0.07012017157873222,60.54599151535896
1.12,-0.06285522671063641,59.96557357931445
1.13,-0.0494554395094819,59.29427441381034
1.14,-0.017274424464138946,58.806265122846604
1.15,0.01684390921269623,58.01277270764891
1.16,0.04509647258862441,57.585096333721374
1.17,0.0802641871908512,56.822152230947076
1.18,0.11744994203421572,56.45633618967692
1.19,0.13911024062242733,56.36469125240673
1.2,0.11247210943940933,56.30359462755994
1.21,0.050128119589861145,56.27304631513655
1.22,0.002475462695795612,56.27304631513655
1.23,-0.036486167559770105,56.42578787725352
1.24,-0.06627244151896296,56.39523956483013
1.25,-0.08252439226092545,56.822152230947076
1.26,-0.09317964473413265,59.5692092256209
1.27,-0.09893778622217897,64.51268988353685
1.28,-0.09379851040808156,69.12090281260603
1.29,-0.09600490107172548,76.65869890307883
1.3,-0.10367345398804884,77.11692358942976
1.31,-0.10240881543693586,77.14747190185317
1.32,-0.0995297446929127,77.14747190185317
1.33,-0.09831892054823006,76.71979552792563
1.34,-0.09169974855729832,76.68924721550223
1.35,-0.09363706718879054,76.78089215277241
1.36,-0.08645284393034024,76.29288286180868
1.37,-0.08090996006801528,76.32343117423207
1.38,-0.07426388087386836,75.95685142515133
1.39,-0.0693398626854923,75.68268032115135
1.4,-0.06643388473825398,75.16335900995364
1.41,-0.07977985753297814,74.5837047817197
1.42,-0.07001254276587154,74.40041490717934
1.43,-0.04811007934872342,73.51527755471146
1.44,-0.04520410140148509,72.4476140355138
1.45,-0.012188963056471873,71.6235733078927
1.46,0.013480508810800018,70.46350114361427
1.47,0.00016144321929101817,69.24309606229961
1.48,-0.03449503452184755,68.02269098098498
1.49,-0.07945697109439612,67.25974687821068
1.5,-0.09815747732893905,66.83207050428314
1.51,-0.09627397310387717,66.83207050428314
1.52,-0.09990644553792508,66.40515783816619
1.53,-0.09907232223825482,65.97748146423865
1.54,-0.09401376803380292,66.03857808908545
1.55,-0.09495552014633385,66.09967471393223
1.56,-0.12799756569456225,66.06912640150884
1.57,-0.18043970476092797,66.09967471393223
1.58,0.08456933970527836,66.03857808908545
1.59,0.9773234351813936,66.03857808908545
1.6,1.3099233741241063,66.03857808908545
1.61,0.45430121908492516,66.09967471393223
1.62,-0.13163003812861016,66.03857808908545
1.63,-0.08276655708986198,66.06912640150884
1.64,-0.06430821568425557,66.03857808908545
1.65,-0.10456139169414944,66.00802977666206
1.66,-0.11206850139118178,66.09967471393223
1.67,-0.10224737221764485,63.62755253106897
1.68,-0.08954717230008474,63.261736489798814
1.69,-0.0935832527823602,62.52934069944791
1.7,-0.09974500231863406,61.98023478363738
1.71,-0.09587036505564962,61.64420334698003
1.72,-0.09159211974443765,60.78961430693555
1.73,-0.08543037020816378,60.54599151535896
1.74,-0.07041615081409909,60.05721851658464
1.75,-0.060891000875929024,59.23317778896355
1.76,-0.04773337850371104,58.897910060116786
1.77,-0.019776794363149726,58.34804043649567
1.78,0.026772667199093846,57.585096333721374
1.79,0.06463110212283761,57.24982860487461
1.8,0.08661428714963125,56.883248855793866
1.81,0.10943159547609516,56.76181931391087
1.82,0.11648128271846961,56.883248855793866
1.83,0.08540346300494861,56.76181931391087
1.84,0.03352637520610144,56.822152230947076
1.85,-0.018969578266694636,56.79236762633426
1.86,-0.055186673794313044,56.822152230947076
1.87,-0.0760935706924999,56.85270054337047
1.88,-0.08669500875927676,56.24249800271315
1.89,-0.08650665833677057,56.85270054337047
1.9,-0.09204954219909553,56.79236762633426
1.91,-0.09102706847691908,58.439685373765855
1.92,-0.0853227413953031,77.87986769220406
1.93,-0.08771748248145321,78.00206094189764
1.94,-0.08021037278442086,77.84931937978067
1.95,-0.08139428972588833,77.84931937978067
1.96,-0.08376212360882326,77.54383625554671
1.97,-0.07838068296578932,77.48273963069992
1.98,-0.07348357198062844,77.51328794312332
1.99,-0.06974347073371985,77.17802021427656
2.0,-0.07727748763396737,77.20856852669995
2.01,-0.07628192111500609,76.78089215277241
2.02,-0.07792326051113144,76.32343117423207
2.03,-0.07889191982687754,75.80410986303436
2.04,-0.0811521248969518,75.49939044661099
2.05,-0.07743893085325838,75.13281069753023
2.06,-0.07864975499794102,74.30876996990915
2.07,-0.08847088417147796,73.54582586713485
2.08,-0.09312583032770232,71.65412162031609
2.09,-0.08322397954451986,70.34207160173126
2.1,-0.0644696589035466,69.24309606229961
2.11,-0.051688737376340985,67.99214266856158
2.12,-0.023597617219703822,67.56446629463404
2.13,0.008125975370981248,66.83207050428314
2.14,-0.00026907203215169697,66.43570615058958
2.15,-0.03166977818425473,66.46625446301299
2.16,-0.07749274525968873,66.43570615058958
2.17,-0.10598747346455344,66.40515783816619
2.18,-0.10351201076875782,66.46625446301299
2.19,-0.10203211459192349,66.40515783816619
2.2,-0.109566131492171,66.46625446301299
2.21,-0.10800551370569116,66.52735108785977
2.22,-0.10590675185490792,66.46625446301299
2.23,-0.11430179925804086,66.06912640150884
2.24,-0.17852929333265094,66.03857808908545
2.25,-0.10464211330379494,66.09967471393223
2.26,0.6270454637263145,66.13022302635564
2.27,1.347620365828559,66.03857808908545
2.28,0.8014041405606143,66.06912640150884
2.29,-0.04127564973207031,63.353381427068996
2.3,-0.12928911144889038,62.77372719883507
2.31,-0.06091790807914419,61.98023478363738
2.32,-0.10071366163438017,61.613655034556636
2.33,-0.11731540601813988,61.18674236843968
2.34,-0.10709066879637538,61.21729068086308
2.35,-0.10100964086974704,60.78961430693555
2.36,-0.09845345656430592,60.78961430693555
2.37,-0.09850727097073625,59.96557357931445
2.38,-0.09627397310387717,59.813595725008064
2.39,-0.09492861294311869,59.23317778896355
2.4,-0.0844348036892025,58.867361747693394
2.41,-0.07426388087386836,58.0738693324957
2.42,-0.07130408852019969,57.707289583414955
2.43,-0.056343683532565345,57.21928029245122
2.44,-0.039957196774527,56.73127100148747
2.45,-0.0012108241446826364,56.33414293998334
2.46,0.03923070228771742,55.90723027386638
2.47,0.07052377962695977,55.57119883720904
2.48,0.09648923072959853,55.11373785866869
2.49,0.11292953189406721,55.144286171092084
2.5,0.10082129044724085,55.0526412338219
2.51,0.0630435771331426,55.17483448351548
2.52,0.003444122011541721,56.822152230947076
2.53,-0.04294389633141083,56.822152230947076
2.54,-0.06347409238458532,56.85270054337047
2.55,-0.07983367193940849,56.76181931391087
2.56,-0.09799603410964804,61.15619405601629
2.57,-0.09646232352638336,66.83207050428314
2.58,-0.08637212232069472,71.95960474455005
2.59,-0.08682954477535261,75.10226238510684
2.6,-0.08656047274320092,77.54383625554671
2.61,-0.07211130461665478,77.51328794312332
2.62,-0.061563680956308264,77.54383625554671
2.63,-0.0642813084810404,77.6049328803935
2.64,-0.06681058558326636,77.20856852669995
2.65,-0.07028161479802325,77.17802021427656
2.66,-0.05981471274732223,76.8419887776192
2.67,-0.05537502421681923,76.75034384034902
2.68,-0.05908821826051265,76.26233454938529
2.69,-0.06654151355111466,75.95685142515133
2.7,-0.06533068940643202,75.46884213418758
2.71,-0.0684519249793917,75.19390732237703
2.72,-0.07160006775556656,74.73644634383669
2.73,-0.08031800159728154,73.94295392863899
2.74,-0.0796453215169023,73.24110645071148
2.75,-0.06759089447650628,72.53925897278397
2.76,-0.07229965503916097,70.03658847749732
2.77,-0.07496346815746277,69.24309606229961
2.78,-0.0722727478359458,68.48015195952532
2.79,-0.0722727478359458,67.19865025336388
2.8,-0.05402966405606075,66.86261881670653
2.81,-0.03094328369744515,66.03857808908545
2.82,-0.006000306316982842,66.09967471393223
2.83,0.021445040962490246,66.00802977666206
2.84,0.015525456255152914,66.03857808908545
2.85,-0.005542883862324957,66.09967471393223
2.86,-0.051903995002062345,66.13022302635564
2.87,-0.08952026509686958,65.70331036023869
2.88,-0.08873995620362965,66.06912640150884
2.89,-0.08677573036892226,65.64221373539189
2.9,-0.09245315024732308,65.70331036023869
2.91,-0.08960098670651509,65.70331036023869
2.92,-0.08561872063066997,65.67276204781528
2.93,-0.10060603282151949,65.67276204781528
2.94,-0.15345177993611278,65.33673061115793
2.95,-0.12159365132935185,64.7876246953474
2.96,0.528645821568439,64.57378650838363
2.97,1.3520062399526318,64.42104494626666
2.98,0.928217789313709,63.65810084349236
2.99,0.020664732069250326,63.170091552528625
3.0,-0.12775540086562573,62.83482382368186
3.01,-0.045473173433636785,61.91913815879059
3.02,-0.07824614694971348,62.07187972090756
3.03,-0.10036386799258297,61.27838730570987
3.04,-0.10039077519579813,60.05721851658464
3.05,-0.08696408079142845,59.69140247531448
3.06,-0.08580707105317616,59.20262947654015
3.07,-0.08090996006801528,58.775716810423205
3.08,-0.07560924103462685,58.104417644919096
3.09,-0.07367192240313462,57.585096333721374
3.1,-0.07181532538128792,57.21928029245122
3.11,-0.06611099829967194,56.76181931391087
3.12,-0.05814646614798171,56.39523956483013
3.13,-0.04439688530503,55.90723027386638
3.14,-0.019911330379225576,55.51010221236225
3.15,0.0013991745671888241,55.11373785866869
3.16,0.03271915910964635,55.144286171092084
3.17,0.07361810799670429,54.80825473443474
3.18,0.09702737479390192,54.2896971310476
3.19,0.10168232095012628,54.350793755894394
3.2,0.09853417817395142,54.350793755894394
3.21,0.06896316184047993,54.71660979716455
3.22,0.019131021485985653,55.90723027386638
3.23,-0.030728026071723792,59.721950787737875
3.24,-0.06414677246496456,59.599757538044294
3.25,-0.0802641871908512,59.63030585046769
3.26,-0.09317964473413265,65.30618229873454
3.27,-0.09223789262160172,70.00604016507391
3.28,-0.07838068296578932,73.54582586713485
3.29,-0.07700841560181566,75.13281069753023
3.3,-0.0791071774525989,75.49939044661099
3.31,-0.0802641871908512,75.89575480030453
3.32,-0.08072160964550909,75.89575480030453
3.33,-0.07687387958573982,75.52993875903438
3.34,-0.06985109954658053,75.49939044661099
3.35,-0.06643388473825398,75.52993875903438
3.36,-0.06272069069456056,75.52993875903438
3.37,-0.059007496650867144,75.10226238510684
3.38,-0.06194038180132064,75.07171407268345
3.39,-0.06707965761541805,74.6448014065665
3.4,-0.06923223387263162,74.24767334506235
3.41,-0.07264944868095818,73.97350224106239
3.42,-0.07899954863973822,73.60692249198163
3.43,-0.08131356811624282,73.51527755471146
3.44,-0.08438098928277217,72.75233345193716
3.45,-0.08325088674773504,72.4476140355138
3.46,-0.08376212360882326,70.40316822657806
3.47,-0.0796453215169023,69.57912749895696
3.48,-0.07719676602432186,68.48015195952532
3.49,-0.07816542534006797,67.56446629463404
3.5,-0.07781563169827076,66.77097387943635
3.51,-0.07838068296578932,66.86261881670653
3.52,-0.06993182115622604,66.52735108785977
3.53,-0.0541642000721366,66.16077133877903
3.54,-0.04038771202596971,66.06912640150884
3.55,-0.009040820280297018,66.00802977666206
3.56,0.020664732069250326,65.67276204781528
3.57,0.005731234284831145,65.58111711054511
3.58,-0.02141813375927508,65.67276204781528
3.59,-0.06344718518137014,65.67276204781528
3.6,-0.09159211974443765,65.67276204781528
3.61,-0.0894126362840089,65.64221373539189
3.62,-0.08841706976504762,65.67276204781528
3.63,-0.09395995362737258,65.6116654229685
3.64,-0.09484789133347318,65.30618229873454
3.65,-0.09406758244023325,65.27563398631115
3.66,-0.11642746831203928,63.47557467676258
3.67,-0.18498702210429166,62.498792387024515
3.68,-0.07633573552143642,62.132212637943766
3.69,0.7337594316776777,61.94968647121398
3.7,1.3627960284419147,62.07187972090756
3.71,0.6344987590169165,61.58310672213324
3.72,-0.12904694661995386,60.88125924420573
3.73,-0.10848984336356421,60.51544320293557
3.74,-0.06097172248557453,60.11831514143143
3.75,-0.10098273366653186,59.660854162891084
3.76,-0.10345819636232748,59.20262947654015
3.77,-0.09576273624278894,58.806265122846604
3.78,-0.09630088030709234,58.47023368618925
3.79,-0.08785201849752905,58.50078199861265
3.8,-0.08061398083264841,58.165514269765886
3.81,-0.08163645455482485,57.585096333721374
3.82,-0.074048623248147,57.12763535518103
3.83,-0.06751017286686077,57.28037691729801
3.84,-0.06169821697238411,56.883248855793866
3.85,-0.047087605626546965,56.30359462755994
3.86,-0.03005534599134455,56.02942352355996
3.87,-0.01326525118507866,55.57119883720904
3.88,0.017462774886645133,54.71660979716455
3.89,0.052011623814923025,54.442438693164576
3.9,0.08303562912201368,54.01476231923704
3.91,0.10870510098928557,53.95366569439025
3.92,0.12159365132935185,53.587849653120095
3.93,0.11432870646125604,53.95366569439025
3.94,0.08596851427246718,54.04531063166044
3.95,0.035759673072960525,53.89256906954346
3.96,-0.014798961768343333,55.44900558751546
3.97,-0.04216358743817091,59.69140247531448
3.98,-0.051742551782771325,64.54323819596024
3.99,-0.05720471403545077,68.38850702225513
4.0,-0.058684610212285104,71.19666064177575
4.01,-0.06153677375309309,72.69200053490096
4.02,-0.0574468788643873,73.18000982586469
4.03,-0.06016450638911944,73.45494463767525
4.04,-0.05766213649010866,73.51527755471146
4.05,-0.054191107275351764,73.48472924228805
4.06,-0.04550008063685196,73.18000982586469
4.07,-0.03804678534624995,73.21055813828809
4.08,-0.03788534212695893,73.18000982586469
4.09,-0.03557132265045434,72.81343007678394
4.1,-0.0313468917456727,72.81343007678394
4.11,-0.03091637649422998,72.75233345193716
4.12,-0.029032872269168102,72.72254884732435
4.13,-0.03823513576875614,72.78288176436055
4.14,-0.042647917096043965,72.3559690982436
4.15,-0.03955358872629945,72.386517410667
4.16,-0.04340131878606872,72.01993766158625
4.17,-0.04439688530503,71.56247668304592
4.18,-0.03721266204657969,70.9217258299652
4.19,-0.03193885021640643,69.94494354022713
4.2,-0.03632472434047909,69.21254774987622
4.21,-0.03637853874690943,68.41905533467853
4.22,-0.03726647645301003,67.56446629463404
4.23,-0.035974930698681885,67.16810194094049
4.24,-0.027014832028030376,66.43570615058958
4.25,-0.007211130461665478,66.00802977666206
4.26,0.02227916426216051,66.00802977666206
4.27,0.06116007290808072,66.03857808908545
4.28,0.06385079322959769,65.70331036023869
4.29,0.040306990416324205,65.21453736146435
4.3,-0.002556184305441121,65.33673061115793
4.31,-0.039526681523084285,65.30618229873454
4.32,-0.049966676370570125,64.87926963261759
4.33,-0.05187708779884717,64.81817300777081
4.34,-0.04967069713520326,64.8487213201942
4.35,-0.04878275942910266,64.90981794504098
4.36,-0.04687234800082561,64.87926963261759
4.37,-0.05233451025350506,64.97091456988778
4.38,-0.10168232095012628,63.292284802222206
4.39,-0.1437651867786517,62.83482382368186
4.4,0.3874906335016588,62.10242803333096
4.41,1.3180493494950876,61.52201009728645
4.42,1.023361659882549,61.21729068086308
4.43,0.026046172712284266,60.82016261935894
4.44,-0.14104755925391954,60.51544320293557
4.45,-0.027230089653751732,60.02667020416125
4.46,-0.06554594703215338,59.599757538044294
4.47,-0.08873995620362965,58.806265122846604
4.48,-0.08112521769373664,58.47023368618925
4.49,-0.07628192111500609,58.0738693324957
4.5,-0.07130408852019969,57.646192958568164
4.51,-0.06342027797815497,57.12763535518103
4.52,-0.05736615725474179,56.79236762633426
4.53,-0.05233451025350506,56.33414293998334
4.54,-0.04872894502267232,56.36469125240673
4.55,-0.04393946285037211,55.84613364901959
4.56,-0.03850420780090783,55.54065052478564
4.57,-0.027714419311624786,55.0526412338219
4.58,-0.01506803380049503,54.74715810958795
4.59,0.006430821568425557,54.320245443470995
4.6,0.04149090735779167,54.04531063166044
4.61,0.07867666220115618,53.587849653120095
4.62,0.10700994718672988,53.61839796554349
4.63,0.12646385511129757,53.28236652888614
4.64,0.134778180904785,53.648946277966886
4.65,0.11303716070692789,53.5573013406967
4.66,0.05992234156018291,53.98421400681365
4.67,0.003632472434047909,53.98421400681365
4.68,-0.03637853874690943,56.822152230947076
4.69,-0.05849625978977892,60.78961430693555
4.7,-0.0626937834913454,64.87926963261759
4.71,-0.06309739153957293,67.53391798221065
4.72,-0.060837186469498684,69.57912749895696
4.73,-0.059895434356967744,70.79953258027162
4.74,-0.056801105987223224,71.22644524638856
4.75,-0.05620914751648949,71.6235733078927
4.76,-0.05464852973000965,71.56247668304592
4.77,-0.05230760305028989,71.6235733078927
4.78,-0.048136986551938585,71.31809018365874
4.79,-0.04875585222588749,71.22644524638856
4.8,-0.04498884377576373,71.22644524638856
4.81,-0.04560770944971263,71.31809018365874
4.82,-0.04848678019373579,71.25699355881196
4.83,-0.055294302607173725,71.19666064177575
4.84,-0.06137533053380208,71.28754187123535
4.85,-0.06662223516076017,71.10501570450556
4.86,-0.06465800932605278,70.83008089269501
4.87,-0.06196728900453581,70.89117751754179
4.88,-0.058173373351196885,70.83008089269501
4.89,-0.05459471532357931,69.27364437472302
4.9,-0.05244213906636574,69.12090281260603
4.91,-0.05166183017312582,68.81618339618267
4.92,-0.05233451025350506,68.02269098098498
4.93,-0.04983214035449428,67.22919856578729
4.94,-0.048029357739077905,66.55789940028316
4.95,-0.04539245182399128,66.09967471393223
4.96,-0.03156214937139405,65.67276204781528
4.97,-0.015202569816570878,65.21453736146435
4.98,0.018243083779885053,64.87926963261759
4.99,0.054675436933224825,64.81817300777081
5.0,0.04216358743817091,64.81817300777081
5.01,0.01334597279472417,64.81817300777081
5.02,-0.030566582852432776,64.90981794504098
5.03,-0.06336646357172464,64.94036625746439
5.04,-0.06732182244435458,64.97091456988778
5.05,-0.063581721197446,64.39049663384327
5.06,-0.06608409109645677,64.42104494626666
5.07,-0.06457728771640726,64.48214157111346
5.08,-0.06142914494023242,64.57378650838363
5.09,-0.08023727998763604,64.42104494626666
5.1,-0.16034002395919622,61.64420334698003
5.11,-0.09005840916117297,61.18674236843968
5.12,0.7310148969497303,61.24783899328647
5.13,1.3870394185387827,60.48489489051217
5.14,0.6351176246908655,60.14886345385483
5.15,-0.13386333599546923,59.5692092256209
5.16,-0.08117903210016697,59.23317778896355
5.17,-0.026207615931575282,58.806265122846604
5.18,-0.07453295290602006,58.50078199861265
5.19,-0.08056016642621806,58.01277270764891
5.2,-0.07135790292663004,57.24982860487461
5.21,-0.07176151097485758,56.73127100148747
5.22,-0.06409295805853421,56.79236762633426
5.23,-0.059007496650867144,56.27304631513655
5.24,-0.054513993713933805,55.93777858628978
5.25,-0.048083172145508245,55.08318954624529
5.26,-0.0426210098928288,55.144286171092084
5.27,-0.034979364179720605,54.77770642201134
5.28,-0.03010916039777489,54.381342068317785
5.29,-0.020906896898186852,53.92311738196686
5.3,-0.006350099958780048,53.61839796554349
5.31,0.019911330379225576,53.129624966769164
5.32,0.052630489488871925,52.85545386276919
5.33,0.09067727483512188,52.73326061307561
5.34,0.12011375515251752,52.7943572379224
5.35,0.14155879611500777,52.763808925499006
5.36,0.14075158001855267,52.88600217519259
5.37,0.11069623402720813,52.7943572379224
5.38,0.05615533311005916,54.381342068317785
5.39,0.005919584707337333,57.585096333721374
5.4,-0.029597923536686666,61.67475165940343
5.41,-0.04060296965169107,65.18398904904096
5.42,-0.03810059975268029,67.62556291948083
5.43,-0.037804620517313425,69.54857918653357
5.44,-0.038262042971971305,70.03658847749732
5.45,-0.038208228565540965,70.79953258027162
5.46,-0.036082559511542565,70.73843595542482
5.47,-0.035598229853669505,70.83008089269501
5.48,-0.03097019090066032,70.79953258027162
5.49,-0.027714419311624786,70.73843595542482
5.5,-0.030351325226711415,70.98282245481198
5.51,-0.03546369383759366,70.31152328930787
5.52,-0.035140807399011625,70.49404945603766
5.53,-0.03339183919002559,70.37261991415465
5.54,-0.03543678663437849,70.58569439330785
5.55,-0.03788534212695893,70.03658847749732
5.56,-0.039203795084502245,69.97549185265052
5.57,-0.03500627138293577,69.91439522780372
5.58,-0.035813487479390865,69.60967581138036
5.59,-0.037643177298022405,69.54857918653357
5.6,-0.0417330721867282,69.24309606229961
5.61,-0.039419052710223605,68.81618339618267
5.62,-0.037858434923743765,68.35795870983173
5.63,-0.03589420908903637,67.59501460705744
5.64,-0.032476994280709826,67.29029519063407
5.65,-0.025346585428689852,66.3746095257428
5.66,-0.01856597021846709,65.73385867266208
5.67,-0.0008610305028854303,65.18398904904096
5.68,0.04340131878606872,64.81817300777081
5.69,0.06737563685078492,64.48214157111346
5.7,0.04420853488252381,64.51268988353685
5.71,0.008960098670651508,64.39049663384327
5.72,-0.03175049979390024,64.1163255298433
5.73,-0.05494450896537652,63.90248734287953
5.74,-0.054244921681782104,64.14687384226669
5.75,-0.05803883733512103,64.0857772174199
5.76,-0.05898058944765197,64.1163255298433
5.77,-0.055079044981452364,63.59776792645616
5.78,-0.05088152127988589,63.68864915591576
5.79,-0.09603180827494065,63.231188177375415
5.8,-0.20008196310800186,63.231188177375415
5.81,0.06866718260511306,63.200639864952024
5.82,1.067112772310415,63.170091552528625
5.83,1.2608177282564217,63.231188177375415
5.84,0.26374440591509335,60.91180755662913
5.85,-0.15641157228978145,60.45434657808878
5.86,-0.02036875283388346,60.08776682900804
5.87,-0.028225656172713012,59.63030585046769
5.88,-0.06519615339035617,59.26372610138695
5.89,-0.06081027926628351,58.806265122846604
5.9,-0.05384131363355456,58.104417644919096
5.91,-0.04697997681368629,58.0738693324957
5.92,-0.04544626623042162,57.21928029245122
5.93,-0.038262042971971305,56.76181931391087
5.94,-0.03368781842539246,56.42578787725352
5.95,-0.03368781842539246,56.27304631513655
5.96,-0.032261736654988465,55.60174714963243
5.97,-0.02402813247114654,55.44900558751546
5.98,-0.01778566132522717,55.205382795938874
5.99,-0.00618865673948903,54.74715810958795
6.0,0.015202569816570878,54.350793755894394
6.01,0.04455832852432102,53.587849653120095
6.02,0.0816902689612552,53.61839796554349
6.03,0.115431901793078,53.22126990403935
6.04,0.14344230034006966,52.8249055503458
6.05,0.15625012907049043,52.8249055503458
6.06,0.14387281559151235,52.8249055503458
6.07,0.09901850783182448,52.702712300652216
6.08,0.04062987685490624,52.85545386276919
6.09,-0.007883810542044721,52.7943572379224
6.1,-0.029947717178483872,53.312914841309535
6.11,-0.043535854802144565,54.2896971310476
6.12,-0.04673781198474976,57.646192958568164
6.13,-0.040818227277412425,61.552558409709846
6.14,-0.03710503323371901,69.30419268714641
6.15,-0.03939214550700843,69.60967581138036
6.16,-0.041813793796373705,69.57912749895696
6.17,-0.04488121496290305,69.57912749895696
6.18,-0.0426210098928288,69.60967581138036
6.19,-0.0381813213623258,69.51803087411018
6.2,-0.03734719806265554,69.21254774987622
6.21,-0.04178688659315854,69.51803087411018
6.22,-0.039203795084502245,69.60967581138036
6.23,-0.03479101375721442,69.24309606229961
6.24,-0.03678214679513697,69.27364437472302
6.25,-0.03799297093981961,69.21254774987622
6.26,-0.03705121882728867,69.12090281260603
6.27,-0.034656477741138565,68.6328935216423
6.28,-0.03360709681574695,68.78563508375927
6.29,-0.03317658156430423,68.41905533467853
6.3,-0.03651307476298528,68.02269098098498
6.31,-0.035813487479390865,67.53391798221065
6.32,-0.03610946671475773,66.83207050428314
6.33,-0.027283904060182072,66.3746095257428
6.34,-0.012619478307914588,65.73385867266208
6.35,0.006726800803792424,65.27563398631115
6.36,0.04407399886644796,64.51268988353685
6.37,0.050235748402721825,64.0857772174199
6.38,0.018135454967024376,63.59776792645616
6.39,-0.021983185026793643,63.200639864952024
6.4,-0.05798502292869069,63.292284802222206
6.41,-0.061294608924156564,62.83482382368186
6.42,-0.056236054719704665,62.86460842829467
6.43,-0.058792239025145784,62.68208226156489
6.44,-0.059787805544107064,62.83482382368186
6.45,-0.05020884119950665,62.77372719883507
6.46,-0.06716037922506356,62.895156740718065
6.47,-0.15869868456307087,62.437695762177725
6.48,-0.17104909083883377,62.407147449754326
6.49,0.5614457022877308,61.98023478363738
6.5,1.3464364488870915,62.01078309606077
6.51,0.7131216068116425,61.8580415339438
6.52,-0.10830149294105802,62.10242803333096
6.53,-0.07891882703009272,60.48489489051217
6.54,-0.01875432064097328,60.11831514143143
6.55,-0.07208439741343961,59.599757538044294
6.56,-0.08039872320692705,58.928458372540184
6.57,-0.06627244151896296,58.775716810423205
6.58,-0.06086409367271385,58.13496595734249
6.59,-0.05927656868301884,57.585096333721374
6.6,-0.05828100216405756,57.28037691729801
6.61,-0.05303409753709947,56.70072268906408
6.62,-0.05004739798021563,56.36469125240673
6.63,-0.04466595733718169,55.90723027386638
6.64,-0.03810059975268029,55.54065052478564
6.65,-0.031212355729596845,54.96099629655171
6.66,-0.020933804101402022,54.77770642201134
6.67,-0.008072160964550908,54.350793755894394
6.68,0.01697844522877208,53.98421400681365
6.69,0.056908734800083904,53.129624966769164
6.7,0.09632778751030752,53.28236652888614
6.71,0.12460725808945086,52.73326061307561
6.72,0.1411820952699954,52.88600217519259
6.73,0.13994436392209758,52.336132551571474
6.74,0.10889345141179176,52.763808925499006
6.75,0.05494450896537652,53.129624966769164
6.76,0.005004739798021563,53.22126990403935
6.77,-0.029893902772053532,54.68606148474116
6.78,-0.04498884377576373,58.50078199861265
6.79,-0.055186673794313044,61.91913815879059
6.8,-0.06272069069456056,65.30618229873454
6.81,-0.06751017286686077,65.06255950715797
6.82,-0.0645503805131921,65.30618229873454
6.83,-0.05674729158079289,65.18398904904096
6.84,-0.05914203266694299,65.33673061115793
6.85,-0.059061311057297484,65.15344073661757
6.86,-0.053356983975681505,67.25974687821068
6.87,-0.051123686108822425,67.9004977312914
6.88,-0.05171564457955616,68.35795870983173
6.89,-0.049024924258039185,68.6634418340657
6.9,-0.05077389246702522,68.81618339618267
6.91,-0.054621622526794485,68.78563508375927
6.92,-0.05098915009274657,68.48015195952532
6.93,-0.046414925546167725,68.26631377256155
6.94,-0.04509647258862441,67.96159435613818
6.95,-0.045311730214345765,67.9004977312914
6.96,-0.04482740055647271,68.05323929340837
6.97,-0.04958997552555775,66.83207050428314
6.98,-0.04993976916735496,66.46625446301299
6.99,-0.04232503065746193,65.6116654229685
7.0,-0.020906896898186852,64.94036625746439
7.01,0.014556796939406806,64.42104494626666
7.02,0.028010398546991652,63.74974578076255
7.03,0.007856903338829551,62.77372719883507
7.04,-0.025319678225474682,62.83482382368186
7.05,-0.06527687500000168,62.346050824907536
7.06,-0.07407553045136217,62.01078309606077
7.07,-0.07264944868095818,62.04133140848417
7.08,-0.07055068683017494,61.613655034556636
7.09,-0.0683712033697462,61.64420334698003
7.1,-0.06557285423536854,61.64420334698003
7.11,-0.06990491395301086,61.52201009728645
7.12,-0.13792632368095986,61.613655034556636
7.13,-0.238317098876758,61.613655034556636
7.14,0.24725029034419432,61.18674236843968
7.15,1.2296591869332552,61.18674236843968
7.16,0.9718343657254991,60.88125924420573
7.17,-0.00040360804822754545,60.75906599451215
7.18,-0.13445529446620297,60.97290418147592
7.19,-0.024646998145095442,60.82016261935894
7.2,-0.06880171862118892,58.867361747693394
7.21,-0.08486531894064522,58.378588748919064
7.22,-0.07348357198062844,58.0738693324957
7.23,-0.06621862711253262,57.55531172910856
7.24,-0.06016450638911944,56.76181931391087
7.25,-0.05658584836150187,56.76181931391087
7.26,-0.06002997037304359,56.02942352355996
7.27,-0.06648769914468432,55.54065052478564
7.28,-0.06183275298845996,55.11373785866869
7.29,-0.05037028441879767,55.11373785866869
7.3,-0.04445069971146034,54.350793755894394
7.31,-0.0379122493301741,53.86202075712007
7.32,-0.020637824866035156,53.526753028273305
7.33,0.0013991745671888241,53.16017327919256
7.34,0.03815441415911063,52.85545386276919
7.35,0.07668552916323364,52.397229176418264
7.36,0.11061551241756262,52.0314131351481
7.37,0.13445529446620297,51.93976819787792
7.38,0.1370114787716441,52.15360638484168
7.39,0.10972757471146202,52.305584239148075
7.4,0.056343683532565345,53.190721591615954
7.41,0.005435255049464278,53.129624966769164
7.42,-0.03610946671475773,53.28236652888614
7.43,-0.05760832208367832,55.8155853365962
7.44,-0.06656842075432982,59.660854162891084
7.45,-0.06853264658903721,63.200639864952024
7.46,-0.06966274912407434,65.48947217327492
7.47,-0.06888244023083442,66.80152219185975
7.48,-0.07367192240313462,67.65611123190423
7.49,-0.0722727478359458,67.59501460705744
7.5,-0.06293594832028192,68.08378760583176
7.51,-0.0565589411582867,67.9004977312914
7.52,-0.05295337592745396,68.08378760583176
7.53,-0.048809666632317825,67.9004977312914
7.54,-0.04778719291014138,67.68665954432763
7.55,-0.04950925391591224,67.53391798221065
7.56,-0.04942853230626673,67.65611123190423
7.57,-0.046468739952598065,67.19865025336388
7.58,-0.04337441158285355,67.19865025336388
7.59,-0.04784100731657172,66.77097387943635
7.6,-0.04956306832234258,66.49680277543638
7.61,-0.04778719291014138,66.06912640150884
7.62,-0.04539245182399128,65.64221373539189
7.63,-0.03810059975268029,64.75707638292401
7.64,-0.014341539313685448,64.57378650838363
7.65,0.022440607481451526,63.231188177375415
7.66,0.026934110418384866,62.83482382368186
7.67,0.0004843296578730545,62.01078309606077
7.68,-0.026073079915499436,61.58310672213324
7.69,-0.06323192755564878,60.78961430693555
7.7,-0.069608934717644,60.75906599451215
7.71,-0.07211130461665478,60.27105670354841
7.72,-0.08360068038953225,60.48489489051217
7.73,-0.08502676215993624,59.93502526689106
7.74,-0.07816542534006797,60.11831514143143
7.75,-0.0864797511335554,59.93502526689106
7.76,-0.16935393703627807,60.08776682900804
7.77,-0.23355452390767295,60.02667020416125
7.78,0.4034466050082544,60.08776682900804
7.79,1.2826932844703545,59.90447695446766
7.8,0.7765418847897975,59.75249910016127
7.81,-0.09888397181574864,59.50811260077411
7.82,-0.11435561366447121,59.23317778896355
7.83,-0.03810059975268029,59.17208116411676
7.84,-0.08669500875927676,59.29427441381034
7.85,-0.09622015869744684,59.17208116411676
7.86,-0.08591469986603684,59.26372610138695
7.87,-0.08287418590272266,59.29427441381034
7.88,-0.07789635330791626,57.21928029245122
7.89,-0.06955512031121366,56.85270054337047
7.9,-0.06511543178071066,56.36469125240673
7.91,-0.06492708135820448,55.84613364901959
7.92,-0.06024522799876495,55.60174714963243
7.93,-0.05176945898598649,55.0220929213985
7.94,-0.04377801963108109,54.68606148474116
7.95,-0.03344565359645593,54.350793755894394
7.96,-0.015498549051937744,54.04531063166044
7.97,0.012807828730420774,53.465656403426514
7.98,0.051634922969910645,53.251818216462745
7.99,0.08828253374897177,52.397229176418264
8.0,0.11718087000206402,52.15360638484168
8.01,0.13580065462696145,51.51209182395038
8.02,0.12977344110676345,51.23792071995041
8.03,0.0870178951978588,51.14627578268022
8.04,0.03008225319455972,51.23792071995041
8.05,-0.01770493971558166,51.54264013637378
8.06,-0.04956306832234258,52.7943572379224
8.07,-0.0649001741549893,55.47955389993885
8.08,-0.06998563556265638,55.54065052478564
8.09,-0.07676625077287914,59.17208116411676
8.1,-0.07415625206100768,62.407147449754326
8.11,-0.07291852071310988,64.75707638292401
8.12,-0.0671334720218484,66.58844771270657
8.13,-0.06923223387263162,66.86261881670653
8.14,-0.07240728385202165,67.29029519063407
8.15,-0.06608409109645677,67.25974687821068
8.16,-0.059787805544107064,67.29029519063407
8.17,-0.05820028055441205,66.77097387943635
8.18,-0.057689043693323824,67.29029519063407
8.19,-0.06196728900453581,66.89316712912994
8.2,-0.05782357970939968,66.92371544155333
8.21,-0.059518733511955364,66.80152219185975
8.22,-0.058227187757627225,66.52735108785977
8.23,-0.05704327081615976,66.3746095257428
8.24,-0.05803883733512103,66.09967471393223
8.25,-0.05319554075639049,65.94693315181526
8.26,-0.043643483615005245,65.73385867266208
8.27,-0.009256077906018375,65.24508567388776
8.28,0.022548236294312206,64.48214157111346
8.29,0.011758447805029156,62.77372719883507
8.3,-0.016171229132316986,62.01078309606077
8.31,-0.057177806832235605,61.15619405601629
8.32,-0.08282037149629232,60.51544320293557
8.33,-0.07641645713108193,59.99612189173785
8.34,-0.07663171475680329,59.69140247531448
8.35,-0.07663171475680329,59.5692092256209
8.36,-0.07542089061212066,59.69140247531448
8.37,-0.07135790292663004,59.23317778896355
8.38,-0.10644489591921132,59.26372610138695
8.39,-0.22249566338623822,58.806265122846604
8.4,-0.009955665189612788,58.867361747693394
8.41,0.9503355103565785,58.775716810423205
8.42,1.1712705559563368,58.806265122846604
8.43,0.2299758658800554,58.775716810423205
8.44,-0.1648873413025599,58.47023368618925
8.45,-0.03645926035655494,58.439685373765855
8.46,-0.048083172145508245,58.50078199861265
8.47,-0.08099068167766078,58.378588748919064
8.48,-0.08021037278442086,58.50078199861265
8.49,-0.07638954992786677,55.38790896266866
8.5,-0.07065831564303562,55.54065052478564
8.51,-0.06476563813891346,55.51010221236225
8.52,-0.0627745051009909,54.86935135928153
8.53,-0.0649001741549893,54.2896971310476
8.54,-0.061778938582029624,53.92311738196686
8.55,-0.05397584964963041,53.16017327919256
8.56,-0.0452848230111306,52.7943572379224
8.57,-0.03589420908903637,52.397229176418264
8.58,-0.015310198629431556,52.00086482272471
8.59,0.01326525118507866,51.51209182395038
8.6,0.04243265947032261,50.81024434602288
8.61,0.07168078936521206,50.35278336748253
8.62,0.10014861036686161,49.956419013788974
8.63,0.11825715813067081,49.49819432743804
8.64,0.12710962798846165,49.55929095228483
8.65,0.10585293744847758,49.49819432743804
8.66,0.05760832208367832,50.01675193082518
8.67,0.000618865673948903,51.90921988545452
8.68,-0.04676471918796493,52.0314131351481
8.69,-0.07267635588417334,55.44900558751546
8.7,-0.07846140457543484,59.29427441381034
8.71,-0.08935882187757856,59.20262947654015
8.72,-0.09038129559975501,62.86460842829467
8.73,-0.08263202107378613,64.45159325869005
8.74,-0.08214769141591308,65.33673061115793
8.75,-0.0844348036892025,66.06912640150884
8.76,-0.08451552529884801,66.03857808908545
8.77,-0.08505366936315141,66.06912640150884
8.78,-0.08438098928277217,66.00802977666206
8.79,-0.07534016900247514,65.52002048569831
8.8,-0.06551903982893821,65.67276204781528
8.81,-0.06075646485985317,65.5505687981217
8.82,-0.06296285552349709,65.76440698508547
8.83,-0.06019141359233461,65.58111711054511
8.84,-0.06998563556265638,65.70331036023869
8.85,-0.07065831564303562,65.6116654229685
8.86,-0.05741997166117213,65.33673061115793
8.87,-0.020099680801731763,65.21453736146435
8.88,0.02408194687757688,64.94036625746439
8.89,0.024593183738665102,64.48214157111346
8.9,-0.004143709295136133,61.70529997182682
8.91,-0.04509647258862441,60.42379826566538
8.92,-0.08526892698887277,59.75249910016127
8.93,-0.0870986168075043,59.17208116411676
8.94,-0.084354082079557,58.592426935882834
8.95,-0.09011222356760332,57.951676082802116
8.96,-0.08728696723001049,57.585096333721374
8.97,-0.0826589282770013,57.585096333721374
8.98,-0.10103654807296221,57.646192958568164
8.99,-0.19663784109646013,57.46366679183838
9.0,-0.15194497655606326,57.707289583414955
9.01,0.6148295934666276,57.585096333721374
9.02,1.319852132110504,57.21928029245122
9.03,0.6203455701257373,57.158183667604426
9.04,-0.1698651738973663,57.28037691729801
9.05,-0.1145439640869774,57.158183667604426
9.06,-0.0530071903338843,57.3109252297214
9.07,-0.10797860650247598,57.158183667604426
9.08,-0.11731540601813988,57.28037691729801
9.09,-0.09861489978359693,57.21928029245122
9.1,-0.09011222356760332,56.85270054337047
9.11,-0.08868614179719932,56.76181931391087
9.12,-0.08801346171682008,56.85270054337047
9.13,-0.07929552787510509,56.76181931391087
9.14,-0.07552851942498133,54.04531063166044
9.15,-0.06982419234336536,53.496204715849906
9.16,-0.059007496650867144,53.28236652888614
9.17,-0.0630435771331426,52.641615675805426
9.18,-0.053733684820693885,52.427777488841656
9.19,-0.015606177864798423,51.93976819787792
9.2,0.014798961768343333,51.23792071995041
9.21,0.06142914494023242,50.688814804139874
9.22,0.10402324762984605,50.90188928329306
9.23,0.11971014710428998,50.35278336748253
9.24,0.12899313221352351,49.956419013788974
9.25,0.11594313865416622,49.40654939016786
9.26,0.06600336948681126,49.681484201978414
9.27,-0.0012108241446826364,49.43709770259125
9.28,-0.0565589411582867,49.925870701365575
9.29,-0.08225532022877376,52.336132551571474
9.3,-0.08629140071104921,52.427777488841656
9.31,-0.09638160191673785,52.305584239148075
9.32,-0.10410396923949156,55.96832689871317
9.33,-0.1056645870259714,59.5386609131975
9.34,-0.10257025865622688,62.498792387024515
9.35,-0.09850727097073625,63.994132280149714
9.36,-0.09525149938170072,65.6116654229685
9.37,-0.09352943837592986,65.6116654229685
9.38,-0.09229170702803205,65.67276204781528
9.39,-0.08927810026793305,65.5505687981217
9.4,-0.0944711904884608,65.39782723600473
9.41,-0.09538603539777657,65.18398904904096
9.42,-0.08849779137469313,65.36727892358134
9.43,-0.07708913721146118,65.24508567388776
9.44,-0.06409295805853421,65.30618229873454
9.45,-0.05037028441879767,64.8487213201942
9.46,-0.011327932553586441,64.48214157111346
9.47,0.02222534985573017,63.96358396772632
9.48,0.0034172148083265515,63.74974578076255
9.49,-0.041356371341715825,61.91913815879059
9.5,-0.0808023312551546,61.21729068086308
9.51,-0.10001407435078576,59.96557357931445
9.52,-0.10004098155400093,59.35537103865713
9.53,-0.10577221583883208,58.40913706134246
9.54,-0.1075211840478181,57.615644646144766
9.55,-0.09783459089035701,57.158183667604426
9.56,-0.09554747861706758,56.822152230947076
9.57,-0.15124538927246886,56.24249800271315
9.58,-0.19182145172094475,56.33414293998334
9.59,0.29110903158492096,56.30359462755994
9.6,1.261705665962522,56.30359462755994
9.61,1.092163378503738,56.33414293998334
9.62,0.07262254147774301,56.39523956483013
9.63,-0.1687888857687595,56.30359462755994
9.64,-0.05333007677246634,56.27304631513655
9.65,-0.08742150324608634,56.30359462755994
9.66,-0.1084091217539187,56.42578787725352
9.67,-0.10222046501442968,56.33414293998334
9.68,-0.10144015612118976,56.30359462755994
9.69,-0.09264150066982926,55.93777858628978
9.7,-0.08034490880049672,56.05920812817278
9.71,-0.07496346815746277,55.93777858628978
9.72,-0.08236294904163444,53.95366569439025
9.73,-0.08739459604287117,53.648946277966886
9.74,-0.09110779008656458,53.28236652888614
9.75,-0.07211130461665478,52.73326061307561
9.76,-0.043132246753917025,52.427777488841656
9.77,-0.02300565874897009,52.366680863994866
9.78,0.002744534727947309,52.0619614475715
9.79,0.046468739952598065,51.90921988545452
9.8,0.07840759016900449,51.2684690323738
9.81,0.11112674927865085,50.77969603359948
9.82,0.14231219780503251,50.84079265844627
9.83,0.1293698330585359,50.81024434602288
9.84,0.0826589282770013,50.44442830475271
9.85,0.021848649010717792,49.864774076518785
9.86,-0.03344565359645593,50.04730024324858
9.87,-0.06702584320898772,49.925870701365575
9.88,-0.09148449093157697,49.956419013788974
9.89,-0.10340438195589714,49.89532238894218
9.9,-0.09955665189612788,63.71919746833915
9.91,-0.09484789133347318,65.64221373539189
9.92,-0.10248953704658137,66.43570615058958
9.93,-0.09853417817395142,66.80152219185975
9.94,-0.09280294388912028,67.25974687821068
9.95,-0.09444428328524564,67.1375536285171
9.96,-0.0938523248145119,67.22919856578729
9.97,-0.09449809769167597,67.25974687821068
9.98,-0.09094634686727357,66.92371544155333
9.99,-0.07932243507832026,66.86261881670653
