time_s,ECG,NIBP
0.0,-0.033878283671988134,89.84300635969585
0.01,-0.04668626448925282,89.38523802609896
0.02,-0.05127337304516638,126.12811283710782
0.03,-0.05874814933657975,129.9425172342314
0.04,-0.05981202692334284,130.09477496257992
0.05,-0.06072392199771119,130.7665002347058
0.06,-0.05950806189855338,131.22426856830268
0.07,-0.057988236774606114,131.4989295684608
0.08,-0.06104170361453653,131.9875475071479
0.09,-0.06041995697292174,131.6213328402704
0.1,-0.060571939485316466,131.68203690189955
0.11,-0.06546301306601948,130.94960756814453
0.12,-0.06423333637482578,130.55254329617682
0.13,-0.06759076823954566,129.6987058391635
0.14,-0.0672868032147562,129.6987058391635
0.15,-0.06942837498031826,129.63700662898304
0.16,-0.07110018261666025,129.66785623407327
0.17,-0.07125216512905498,127.22675683774034
0.18,-0.07172192925827504,126.52418196052425
0.19,-0.0732417543822223,125.63949489842071
0.2,-0.07172192925827504,125.27328023154321
0.21,-0.06713482070236147,124.44929723106883
0.22,-0.05783625426221139,124.05322810765239
0.23,-0.05768427174981666,124.05322810765239
0.24,-0.055694682496649335,123.77856710749425
0.25,-0.05539071747185988,122.86303044030049
0.26,-0.05554269998425461,121.82509050129713
0.27,-0.053553110731087275,118.98692683299646
0.28,-0.05004369635397268,115.96565583125704
0.29,-0.04699022951404227,112.94438482951762
0.3,-0.04455850931572664,111.08246189003987
0.31,-0.04471049182812137,110.07537155612673
0.32,-0.0407451299138226,109.86240976614906
0.33,-0.04653428197685809,109.74000649433945
0.34,-0.05157733806995583,109.77085609942968
0.35,-0.05753228923742194,109.77085609942968
0.36,-0.06561499557841421,110.10622116121695
0.37,-0.06591896060320367,110.13707076630718
0.38,-0.03509414377114595,110.1669252228461
0.39,-0.013277744946484746,110.13707076630718
0.4,-0.02090450375029284,110.59483909990406
0.41,-0.02090450375029284,110.56398949481384
0.42,-0.03249662446839971,110.62469355644299
0.43,-0.04623031695206863,110.62469355644299
0.44,-0.04776395866805178,110.59483909990406
0.45,-0.04973973132918323,110.47243582809446
0.46,-0.0962878298980772,109.49619509927155
0.47,-0.15152656485754235,108.54980882698756
0.48,-0.024869865664591616,107.02424609784838
0.49,0.36865430870146304,104.70455482477375
0.5,0.5889875018977089,103.2088465521735
0.51,0.3909266550633084,101.31706915615682
0.52,0.12878445436647692,100.64534388403096
0.53,-0.026859454917758943,99.45514621667907
0.54,-0.07889274052489896,98.63116321620468
0.55,-0.06683085567757202,97.77732575919137
0.56,-0.06988432251750244,96.739385820188
0.57,-0.07614323870975799,96.19006381987174
0.58,-0.07720711629652108,95.82384915299424
0.59,-0.07705513378412636,95.39693042448758
0.6,-0.0767511687593369,95.33523121430713
0.61,-0.07568729117257382,95.24367754758775
0.62,-0.07735909880891581,94.99986615251986
0.63,-0.07354571940701175,94.5729474240132
0.64,-0.07476157950616957,94.48139375729382
0.65,-0.07172192925827504,94.11517909041632
0.66,-0.06882044493073936,93.68726521335836
0.67,-0.06347342381285216,92.80257815125482
0.68,-0.052793198169113646,92.61947081781607
0.69,-0.037387698049102726,91.76563336080275
0.7,-0.018762931984730787,91.06305848358667
0.71,-0.005347021117887197,90.57543569345086
0.72,-0.0006079300495789061,90.57543569345086
0.73,-0.00015198251239472653,91.30786502720588
0.74,-0.013885674996063652,95.54918815283611
0.75,-0.028531262554100937,104.49059788624477
0.76,-0.036158021357909034,114.74460855881492
0.77,-0.03784364558628691,122.83218083521027
0.78,-0.03463819623396176,126.98195029412113
0.79,-0.035550091308330124,128.7214699617893
0.8,-0.037235715536708,129.60715217244413
0.81,-0.0360060388455143,129.9733668393216
0.82,-0.035550091308330124,130.82720429633494
0.83,-0.03372630115959341,130.49183923454765
0.84,-0.033878283671988134,130.4002855678283
0.85,-0.035854056333119576,130.49183923454765
0.86,-0.040289182376638415,130.43113517291852
0.87,-0.04425454429093719,130.09477496257992
0.88,-0.041201077451006776,129.6987058391635
0.89,-0.04180900750058568,128.99613096194742
0.9,-0.04211297252537514,127.77607883805659
0.91,-0.04348081513692768,125.67034450351093
0.92,-0.043328832624532944,124.9070655646657
0.93,-0.04211297252537514,124.38859316943967
0.94,-0.0413530599634015,123.74771750240403
0.95,-0.038755540660655265,123.62531423059443
0.96,-0.03769166307389218,123.62531423059443
0.97,-0.03677976799952382,123.28994916880715
0.98,-0.03204067693121553,122.95458410701987
0.99,-0.030520851807268264,122.52667022996192
1.0,-0.0312807643692419,122.55751983505213
1.01,-0.033270353622409224,118.01068610417354
1.02,-0.030976799344452445,114.714754102276
1.03,-0.026859454917758943,112.18110589067238
1.04,-0.028075315016916756,110.56398949481384
1.05,-0.027315402454943124,109.40464143255217
1.06,-0.028987210091285114,109.4344958890911
1.07,-0.02929117511607457,109.40464143255217
1.08,-0.0259337432513547,109.34294222237172
1.09,-0.027771349992127305,109.40464143255217
1.1,-0.02746738496733785,109.40464143255217
1.11,-0.02701143743015367,109.74000649433945
1.12,-0.0312807643692419,109.8007105559686
1.13,-0.029608956732899906,109.8007105559686
1.14,-0.0331183711100145,110.19777482793633
1.15,-0.035550091308330124,110.10622116121695
1.16,-0.03890752317304999,110.19777482793633
1.17,-0.04653428197685809,110.13707076630718
1.18,-0.05096940802037692,108.61051288861671
1.19,-0.01815500193515188,106.68788588750981
1.2,0.009008418007396518,106.50477855407105
1.21,0.003661396889509321,105.0100654300221
1.22,0.003357431864719868,103.17899209563457
1.23,-0.0022935542779567823,101.43947242796642
1.24,-0.012048068255291049,99.79150642701765
1.25,-0.01266981489690584,98.9973778830822
1.26,-0.012973779921695293,97.83802982082052
1.27,-0.04852387123002542,97.38026148722363
1.28,-0.11214927755527229,96.70853621509778
1.29,-0.050513460483192746,95.79299954790402
1.3,0.3111220194640411,95.36608081939735
1.31,0.6449861494191477,94.54209781892297
1.32,0.5122363331383719,94.02362542369694
1.33,0.19180193064214487,93.74896442353881
1.34,0.006714863729439736,92.95483587960335
1.35,-0.05996400943573756,92.92498142306442
1.36,-0.05233725063192946,92.61947081781607
1.37,-0.05096940802037692,92.19255208930942
1.38,-0.057366490132991325,91.39941869392524
1.39,-0.060267974460527014,91.33771948374479
1.4,-0.06149765115172071,91.0939080886769
1.41,-0.06591896060320367,90.57543569345086
1.42,-0.0666788731651773,90.11766735985398
1.43,-0.06591896060320367,90.11766735985398
1.44,-0.07172192925827504,90.14752181639291
1.45,-0.06942837498031826,90.57543569345086
1.46,-0.07476157950616957,89.87286081623478
1.47,-0.07705513378412636,89.35438842100874
1.48,-0.07766306383370526,88.95732414904101
1.49,-0.07874075801250423,88.43885175381497
1.5,-0.06988432251750244,88.1034866920277
1.51,-0.06087590451010592,87.34020775318247
1.52,-0.052489233144324195,86.94314348121473
1.53,-0.04440652680333192,86.48537514761784
1.54,-0.0407451299138226,86.9132890246758
1.55,-0.0360060388455143,88.04178748184725
1.56,-0.04471049182812137,88.01193302530832
1.57,-0.04821990620523597,93.44345381829045
1.58,-0.04928378379199905,103.69746449086061
1.59,-0.051121390532771656,114.80630776899537
1.6,-0.05447882239749152,123.35065323043631
1.61,-0.056454595058622964,123.65616383568465
1.62,-0.053705093243482,130.58339290126705
1.63,-0.053553110731087275,131.31582223502204
1.64,-0.05447882239749152,131.28497262993181
1.65,-0.04882783625481487,131.28497262993181
1.66,-0.048675853742420144,130.9187579630543
1.67,-0.045774369414884455,130.09477496257992
1.68,-0.04638229946446336,129.72856029570244
1.69,-0.048675853742420144,128.56921223344077
1.7,-0.04852387123002542,127.34816496099864
1.71,-0.04913180127960432,125.974859960208
1.72,-0.04761197615565706,124.96776962629485
1.73,-0.05019567886636741,123.68701344077488
1.74,-0.054326839885096796,122.92373450192964
1.75,-0.050513460483192746,122.52667022996192
1.76,-0.052489233144324195,122.61822389668129
1.77,-0.045774369414884455,122.16045556308441
1.78,-0.043328832624532944,121.70268722948752
1.79,-0.04272090257495404,121.6728327729486
1.8,-0.04013719986424369,120.90955383410336
1.81,-0.037235715536708,119.23073822806437
1.82,-0.03463819623396176,117.46136410385729
1.83,-0.0331183711100145,113.8907711018016
1.84,-0.028987210091285114,111.14416110022032
1.85,-0.02883522757889039,109.03842676567466
1.86,-0.029912921757689358,107.7566754316034
1.87,-0.029912921757689358,107.69497622142295
1.88,-0.028227297529311482,106.932692431129
1.89,-0.027619367479732575,106.932692431129
1.9,-0.030520851807268264,107.35961115963566
1.91,-0.033270353622409224,107.32876155454544
1.92,-0.039059505685444716,107.35961115963566
1.93,-0.04302486759974349,107.42031522126481
1.94,-0.04395057926614774,107.32876155454544
1.95,-0.050347661378762135,107.29890709800651
1.96,-0.057366490132991325,107.72582582651317
1.97,-0.062105581201299616,107.81737949323255
1.98,-0.032648606980794435,107.66512176488402
1.99,-0.00610693367986083,107.7566754316034
2.0,-0.012048068255291049,106.59633222079043
2.01,-0.013429727458879472,106.4440744924419
2.02,-0.018610949472336057,105.77234922031604
2.03,-0.029608956732899906,103.91142142938959
2.04,-0.03143274688163662,102.62967009531832
2.05,-0.03067283431966299,100.27912921715345
2.06,-0.06225756371369434,98.75356648801429
2.07,-0.1322938687435915,97.47181515394301
2.08,-0.0767511687593369,96.70853621509778
2.09,0.2691610294510607,95.45763448611673
2.1,0.5943345230155961,94.60280188055212
2.11,0.4859986248622278,93.6265611517292
2.12,0.19409548492010167,93.35190015157107
2.13,0.00502923950106186,92.61947081781607
2.14,-0.07415364945659067,92.25325615093857
2.15,-0.07217787679545921,91.39941869392524
2.16,-0.06485508301644058,91.39941869392524
2.17,-0.07400166694419594,91.24616581702543
2.18,-0.07339373689461703,91.00235442195752
2.19,-0.0701882875422919,90.57543569345086
2.2,-0.06806053236876572,90.17837142148313
2.21,-0.07034027005468661,90.05596814967353
2.22,-0.07248184182024868,90.14752181639291
2.23,-0.07599125619736327,89.72060308788625
2.24,-0.07904472303729368,89.35438842100874
2.25,-0.07904472303729368,88.89662008741186
2.26,-0.07248184182024868,88.56125502562458
2.27,-0.07141796423348559,88.07263708693748
2.28,-0.06485508301644058,87.73727202515019
2.29,-0.05523873495946515,86.97399308630496
2.3,-0.04317685011213822,86.5470743577983
2.31,-0.0331183711100145,86.11916048074035
2.32,-0.021968381337055927,85.78379541895306
2.33,-0.017851036910362425,86.0584564191112
2.34,-0.024109953102617983,86.15001008583057
2.35,-0.040289182376638415,86.15001008583057
2.36,-0.053249145706297824,86.11916048074035
2.37,-0.05233725063192946,89.14043148247977
2.38,-0.05768427174981666,96.3731711533105
2.39,-0.060267974460527014,107.6342721597938
2.4,-0.06149765115172071,117.73602510401541
2.41,-0.06072392199771119,128.386104900002
2.42,-0.06485508301644058,129.2100879004764
2.43,-0.0625615287384838,128.8747228386891
2.44,-0.06576697809080893,128.8747228386891
2.45,-0.06485508301644058,128.84387323359888
2.46,-0.061801616176510164,128.66076590016013
2.47,-0.062105581201299616,128.47765856672137
2.48,-0.06546301306601948,127.74522923296637
2.49,-0.06713482070236147,126.46347789889509
2.5,-0.0672868032147562,125.36483389826259
2.51,-0.06774275075194038,123.74771750240403
2.52,-0.06973234000510771,122.22215477326486
2.53,-0.06561499557841421,120.97025789573252
2.54,-0.0625615287384838,119.68850656166124
2.55,-0.058292201799395565,119.23073822806437
2.56,-0.0584441843117903,119.17003416643522
2.57,-0.06087590451010592,118.9262227713673
2.58,-0.057062525108201874,118.83466910464793
2.59,-0.0590521143613692,118.0713901658027
2.6,-0.05417485737270207,117.67432589383496
2.61,-0.0530971631939031,115.81339810290851
2.62,-0.05157733806995583,113.06678810132722
2.63,-0.04531842187770028,110.19777482793633
2.64,-0.043328832624532944,107.42031522126481
2.65,-0.04272090257495404,106.23011755391292
2.66,-0.04211297252537514,105.8340484304965
2.67,-0.04395057926614774,105.8340484304965
2.68,-0.049587748816788506,105.71164515868689
2.69,-0.05463080490988625,106.07785982556439
2.7,-0.03693175051191855,106.13856388719354
2.71,-0.004269326939088227,106.10870943065461
2.72,-0.002445536790351509,106.13856388719354
2.73,-0.008386671365781728,106.41322488735167
2.74,-0.0059549511674661035,106.96254688766793
2.75,-0.014341622533247831,107.69497622142295
2.76,-0.016939141835994067,107.7566754316034
2.77,-0.015101535095221464,108.1228900984809
2.78,-0.03784364558628691,108.18359416011005
2.79,-0.10787995061618408,108.2442982217392
2.8,-0.09795963753441919,108.1228900984809
2.81,0.1789801332328443,106.932692431129
2.82,0.5512958388238167,104.70455482477375
2.83,0.5471784943971232,102.62967009531832
2.84,0.27587589318050043,100.58463982240181
2.85,0.06836449739355517,98.69286242638513
2.86,-0.04317685011213822,97.8071802157303
2.87,-0.05417485737270207,96.58712809183947
2.88,-0.04440652680333192,95.82384915299424
2.89,-0.05004369635397268,94.90831248580048
2.9,-0.049587748816788506,94.45054415220359
2.91,-0.04821990620523597,94.14503354695525
2.92,-0.04973973132918323,93.41260421320023
2.93,-0.05233725063192946,93.32105054648085
2.94,-0.052489233144324195,93.32105054648085
2.95,-0.05417485737270207,93.29119608994192
2.96,-0.053705093243482,93.41260421320023
2.97,-0.0549347699346757,93.0165350897838
2.98,-0.052489233144324195,92.95483587960335
2.99,-0.04989171384157796,92.55876675618691
3.0,-0.045774369414884455,92.19255208930942
3.01,-0.03143274688163662,90.63613975508001
3.02,-0.016179229274020435,89.87286081623478
3.03,-0.0021415717655620557,88.89662008741186
3.04,0.007626758803808096,88.92746969250209
3.05,0.009616348056975425,88.89662008741186
3.06,0.0022935542779567823,90.57543569345086
3.07,-0.019840626163529756,95.85469875808447
3.08,-0.0331183711100145,106.13856388719354
3.09,-0.037995628098681636,115.78254849781828
3.1,-0.04013719986424369,123.47305650224591
3.11,-0.03829959312347109,127.13520317102096
3.12,-0.03829959312347109,128.78316917196975
3.13,-0.03372630115959341,129.63700662898304
3.14,-0.030216886782478813,129.6987058391635
3.15,-0.026085725763749425,130.49183923454765
3.16,-0.024869865664591616,130.46098962945743
3.17,-0.023198058028249622,130.49183923454765
3.18,-0.023046075515854896,130.82720429633494
3.19,-0.023654005565433803,130.12562456767014
3.2,-0.02380598807782853,129.66785623407327
3.21,-0.020296573700713933,128.56921223344077
3.22,-0.020752521237898114,127.28746089936949
3.23,-0.023046075515854896,125.63949489842071
3.24,-0.021968381337055927,123.77856710749425
3.25,-0.01845896695994133,122.52667022996192
3.26,-0.018610949472336057,121.36732216770025
3.27,-0.014189640020853104,120.54333916722587
3.28,-0.014341622533247831,119.26158783315459
3.29,-0.010376260618949057,119.20088377152544
3.3,-0.00565098614267665,118.9262227713673
3.31,-0.005347021117887197,118.46845443777043
3.32,-0.0016718076363419919,118.10223977089292
3.33,-0.005181222013456587,116.60653149829268
3.34,-0.0044213094514829535,113.37130355802428
3.35,-0.005499003630281924,110.19777482793633
3.36,-0.0032054493523251413,107.78652988814233
3.37,-0.00045594753718417963,106.10870943065461
3.38,0.0013678426115525388,105.77234922031604
3.39,-0.00030396502478945305,105.65094109705774
3.4,-0.004725274476272407,105.80319882540627
3.41,-0.005802968655071377,106.04701022047416
3.42,-0.013125762434090018,106.10870943065461
3.43,-0.023198058028249622,106.47492409753212
3.44,-0.013581709971274199,106.4440744924419
3.45,0.01968864365113503,106.53562815916128
3.46,0.027163419942548398,106.53562815916128
3.47,0.020144591188319207,106.87099322094856
3.48,0.027163419942548398,106.932692431129
3.49,0.01815500193515188,107.35961115963566
3.5,0.009312383032185971,107.72582582651317
3.51,0.01113617318092269,105.49768822015791
3.52,-0.0007599125619736326,103.2088465521735
3.53,-0.0549347699346757,100.98170409436955
3.54,-0.08651949932870705,99.18048521652094
3.55,0.11459481434562381,97.41111109231386
3.56,0.5432131324828244,97.38026148722363
3.57,0.6602534836187998,96.19006381987174
3.58,0.3631553050711811,95.36608081939735
3.59,0.10376260618949057,94.14503354695525
3.6,-0.01815500193515188,93.65741075681943
3.61,-0.03295257200558389,92.98568548469358
3.62,-0.021512433799871746,92.55876675618691
3.63,-0.027163419942548398,92.19255208930942
3.64,-0.036158021357909034,91.73478375571253
3.65,-0.030976799344452445,91.33771948374479
3.66,-0.032344641956004984,91.30786502720588
3.67,-0.03372630115959341,90.9715048168673
3.68,-0.03463819623396176,90.54458608836063
3.69,-0.03249662446839971,90.11766735985398
3.7,-0.03280058949318916,89.75145269297647
3.71,-0.03463819623396176,89.35438842100874
3.72,-0.036461986382698486,89.04887781576039
3.73,-0.039059505685444716,88.40800214872475
3.74,-0.03860355814826054,87.76712648168912
3.75,-0.029760939245294632,87.18795002483394
3.76,-0.018610949472336057,86.97399308630496
3.77,-0.010072295594159604,86.51622475270807
3.78,0.0021415717655620557,87.21780448137287
3.79,0.011744103230501596,87.18795002483394
3.8,0.014645587558037285,87.30935814809224
3.81,0.007474776291413369,87.27950369155332
3.82,-0.00015198251239472653,87.30935814809224
3.83,-0.005802968655071377,89.62904942116687
3.84,-0.007018828754229189,97.59421842575262
3.85,-0.005802968655071377,108.82446982714569
3.86,-0.007626758803808096,109.49619509927155
3.87,-0.003813379401904048,130.15647417276037
3.88,-0.0044213094514829535,130.49183923454765
3.89,-0.0035094143771145945,130.49183923454765
3.9,-0.003053466839930415,130.43113517291852
3.91,-0.003661396889509321,129.63700662898304
3.92,-0.00610693367986083,129.30164156719576
3.93,-0.005499003630281924,128.11144389984386
3.94,-0.009312383032185971,128.05073983821472
3.95,-0.01159212071810687,128.08059429475364
3.96,-0.016635176811204612,128.0198902331245
3.97,-0.023502023053039077,128.1422935049341
3.98,-0.022120363849450653,127.31831050445972
3.99,-0.021208468775082295,125.67034450351093
4.0,-0.018610949472336057,124.60155495941734
4.01,-0.015557482632405643,122.86303044030049
4.02,-0.008386671365781728,120.54333916722587
4.03,-0.009464365544580697,120.39108143887734
4.04,-0.007778741316202821,120.45178550050649
4.05,-0.006714863729439736,120.08557083362898
4.06,0.00015198251239472653,119.29243743824482
4.07,0.0022935542779567823,118.0713901658027
4.08,-0.0022935542779567823,115.53873710275039
4.09,-0.00015198251239472653,111.78503676725596
4.1,-0.0012158600991578122,108.73291616042631
4.11,0.00045594753718417963,106.65803143097088
4.12,-0.0013678426115525388,106.53562815916128
4.13,-0.002445536790351509,105.77234922031604
4.14,-0.003965361914298774,105.34543049180938
4.15,-0.005802968655071377,105.80319882540627
4.16,-0.01221386735972166,105.74249476377712
4.17,-0.019384678626345575,105.74249476377712
4.18,0.005802968655071377,105.80319882540627
4.19,0.03829959312347109,105.74249476377712
4.2,0.03219265944361026,106.20026309737399
4.21,0.03036886929487354,106.50477855407105
4.22,0.03280058949318916,106.50477855407105
4.23,0.023654005565433803,106.4440744924419
4.24,0.018914914497125512,106.53562815916128
4.25,0.023046075515854896,106.47492409753212
4.26,-0.005347021117887197,105.34543049180938
4.27,-0.07553530866017909,103.75816855248976
4.28,-0.04501445685291082,101.83554155138286
4.29,0.2934229650660734,99.88306009373703
4.3,0.6671203298606342,97.86887942591075
4.31,0.5847181749586207,96.64783215346863
4.32,0.25665701365858545,96.70853621509778
4.33,0.05447882239749152,96.6169825483784
4.34,-0.0195366611387403,96.64783215346863
4.35,-0.010376260618949057,95.39693042448758
4.36,-0.00565098614267665,94.54209781892297
4.37,-0.011440138205712143,93.80966848516796
4.38,-0.013581709971274199,92.98568548469358
4.39,-0.0176990543979677,90.9715048168673
4.4,-0.01800301942275715,91.39941869392524
4.41,-0.021512433799871746,91.03320402704774
4.42,-0.02380598807782853,90.72769342179939
4.43,-0.03067283431966299,90.23907548311229
4.44,-0.035854056333119576,90.17837142148313
4.45,-0.04150504247579623,89.6598990262571
4.46,-0.040897112426217325,89.75145269297647
4.47,-0.040289182376638415,89.38523802609896
4.48,-0.039667435735023626,88.53040542053435
4.49,-0.0353981087959354,87.64571835843081
4.5,-0.028987210091285114,86.94314348121473
4.51,-0.014493605045642557,86.5470743577983
4.52,-0.003053466839930415,86.5470743577983
4.53,0.005347021117887197,87.27950369155332
4.54,0.0018376067407726026,91.55167642227377
4.55,-0.005802968655071377,101.07325776108891
4.56,-0.009312383032185971,101.80568709484393
4.57,-0.01724310686078352,121.00110750082274
4.58,-0.023957970590223254,125.88330629348862
4.59,-0.027163419942548398,127.98904062803427
4.6,-0.023502023053039077,128.08059429475364
4.61,-0.0195366611387403,128.47765856672137
4.62,-0.019840626163529756,128.93542690031825
4.63,-0.019840626163529756,128.84387323359888
4.64,-0.0218163988246612,128.84387323359888
4.65,-0.02426193561501271,128.90457729522802
4.66,-0.02502184817698634,128.5085081718116
4.67,-0.023198058028249622,128.05073983821472
4.68,-0.02105648626268757,127.74522923296637
4.69,-0.024109953102617983,126.86054217086283
4.7,-0.0259337432513547,125.57879083679155
4.71,-0.03112878185684717,124.48014683615905
4.72,-0.02883522757889039,123.41235244061676
4.73,-0.030216886782478813,122.55751983505213
4.74,-0.030064904270084087,121.7942408962069
4.75,-0.032648606980794435,121.00110750082274
4.76,-0.033270353622409224,120.97025789573252
4.77,-0.029443157628469295,120.48263510559671
4.78,-0.03082481683205772,120.54333916722587
4.79,-0.028379280041706208,120.05472122853875
4.8,-0.0259337432513547,119.23073822806437
4.81,-0.026707472405364217,117.46136410385729
4.82,-0.024869865664591616,113.79921743508223
4.83,-0.027619367479732575,109.89226422268797
4.84,-0.028987210091285114,107.39046076472589
4.85,-0.029443157628469295,106.16941349228377
4.86,-0.029443157628469295,106.07785982556439
4.87,-0.03357431864719868,105.68079555359667
4.88,-0.036158021357909034,105.68079555359667
4.89,-0.04348081513692768,105.74249476377712
4.9,-0.04928378379199905,105.71164515868689
4.91,-0.060571939485316466,105.65094109705774
4.92,-0.053553110731087275,105.80319882540627
4.93,-0.01678715932359934,106.4440744924419
4.94,-0.00457329196387768,106.50477855407105
4.95,-0.014645587558037285,106.87099322094856
4.96,-0.014645587558037285,106.87099322094856
4.97,-0.02136045128747702,106.90184282603879
4.98,-0.03112878185684717,106.932692431129
4.99,-0.03143274688163662,107.29890709800651
5.0,-0.04104909493861205,106.50477855407105
5.01,-0.09659179492286665,104.73540442986398
5.02,-0.13717112573225865,101.86639115647309
5.03,0.03357431864719868,99.8522104886468
5.04,0.4412881330341064,98.32664775950762
5.05,0.5961583131643328,96.64783215346863
5.06,0.3578221005453298,96.67868175855885
5.07,0.11123738248090394,94.9391620908907
5.08,-0.03631000387030376,94.63365148564235
5.09,-0.07217787679545921,94.54209781892297
5.1,-0.05950806189855338,94.11517909041632
5.11,-0.057988236774606114,93.29119608994192
5.12,-0.0590521143613692,92.65032042290629
5.13,-0.060267974460527014,92.13085287912897
5.14,-0.058900131848974475,92.16170248421919
5.15,-0.060267974460527014,91.76563336080275
5.16,-0.058900131848974475,91.39941869392524
5.17,-0.05935607938615865,91.00235442195752
5.18,-0.05753228923742194,90.91080075523814
5.19,-0.05294518068150837,90.57543569345086
5.2,-0.05463080490988625,90.17837142148313
5.21,-0.053553110731087275,89.68975348279602
5.22,-0.04607833443967391,89.75145269297647
5.23,-0.038755540660655265,88.4697013589052
5.24,-0.019384678626345575,88.1034866920277
5.25,-0.005499003630281924,87.30935814809224
5.26,0.007474776291413369,86.97399308630496
5.27,0.011744103230501596,87.15710041974371
5.28,0.01068022564373851,88.07263708693748
5.29,-0.002597519302746235,93.19964242322256
5.3,-0.0176990543979677,103.36209942907333
5.31,-0.02792333250452203,114.9585654973439
5.32,-0.03448621372156704,123.44220689715569
5.33,-0.036461986382698486,127.92833656640512
5.34,-0.040289182376638415,129.60715217244413
5.35,-0.037995628098681636,130.4002855678283
5.36,-0.040897112426217325,130.82720429633494
5.37,-0.041960990012980405,130.82720429633494
5.38,-0.0413530599634015,130.82720429633494
5.39,-0.041960990012980405,130.49183923454765
5.4,-0.042568920062559315,130.46098962945743
5.41,-0.04607833443967391,129.60715217244413
5.42,-0.044102561778542465,128.08059429475364
5.43,-0.042264955037769864,126.40277383726595
5.44,-0.04745999364326233,124.20548583600092
5.45,-0.04745999364326233,124.02237850256216
5.46,-0.05066544299558747,121.7942408962069
5.47,-0.04928378379199905,120.48263510559671
5.48,-0.04776395866805178,119.29243743824482
5.49,-0.04440652680333192,118.46845443777043
5.5,-0.04471049182812137,118.49830889430936
5.51,-0.03981941824741835,118.49830889430936
5.52,-0.04044116488903314,118.13209422743185
5.53,-0.03997140075981308,118.10223977089292
5.54,-0.038755540660655265,118.13209422743185
5.55,-0.04241693755016459,117.39966489367684
5.56,-0.037995628098681636,116.17961276978602
5.57,-0.03860355814826054,113.34144910148535
5.58,-0.036158021357909034,110.25847888956548
5.59,-0.036158021357909034,107.42031522126481
5.6,-0.03829959312347109,105.86390288703542
5.61,-0.041960990012980405,105.28472643018023
5.62,-0.052185268119534736,105.34543049180938
5.63,-0.05981202692334284,105.71164515868689
5.64,-0.027619367479732575,105.68079555359667
5.65,-0.0007599125619736326,105.74249476377712
5.66,-0.009160400519791246,105.74249476377712
5.67,-0.00976833056937015,106.10870943065461
5.68,-0.017091124348388793,106.87099322094856
5.69,-0.02883522757889039,107.26805749291628
5.7,-0.029139192603679843,107.69497622142295
5.71,-0.02929117511607457,107.81737949323255
5.72,-0.07049225256708135,107.78652988814233
5.73,-0.12984833195324,107.72582582651317
5.74,-0.03814761061107636,106.53562815916128
5.75,0.33447206000468543,104.6438507631446
5.76,0.6082201980116597,102.2634554284408
5.77,0.4547178604929859,99.8522104886468
5.78,0.1852390494250999,98.32664775950762
5.79,0.008234688853387002,97.04489642543636
5.8,-0.057366490132991325,95.76314509136509
5.81,-0.04776395866805178,95.79299954790402
5.82,-0.04668626448925282,95.39693042448758
5.83,-0.048675853742420144,94.51124821383274
5.84,-0.04837188871763069,93.74896442353881
5.85,-0.044862474340516094,93.32105054648085
5.86,-0.04317685011213822,92.92498142306442
5.87,-0.048979818767209596,92.92498142306442
5.88,-0.04607833443967391,93.0165350897838
5.89,-0.04699022951404227,92.92498142306442
5.9,-0.045470404390095004,92.55876675618691
5.91,-0.043328832624532944,92.16170248421919
5.92,-0.039059505685444716,91.73478375571253
5.93,-0.03631000387030376,91.30786502720588
5.94,-0.02883522757889039,90.94165036032837
5.95,-0.020144591188319207,90.08681775476376
5.96,-0.003357431864719868,90.26992508820251
5.97,0.009008418007396518,89.32353881591852
5.98,0.011744103230501596,89.01902335922146
5.99,0.01221386735972166,88.4697013589052
6.0,-0.0009118950743683593,88.4697013589052
6.01,-0.01479757007043201,103.39195388561225
6.02,-0.02227234636184538,114.22613616358889
6.03,-0.025477795714170522,122.58836944014236
6.04,-0.026707472405364217,127.4098641711791
6.05,-0.022742110491065445,129.66785623407327
6.06,-0.022424328874240108,129.75940990079266
6.07,-0.022424328874240108,130.46098962945743
6.08,-0.021968381337055927,130.8889035065154
6.09,-0.025325813201775793,130.79734983979603
6.1,-0.021664416312266472,130.49183923454765
6.11,-0.024413918127407435,130.4002855678283
6.12,-0.02701143743015367,129.6987058391635
6.13,-0.02929117511607457,129.17923829538617
6.14,-0.028227297529311482,128.20299756656325
6.15,-0.030976799344452445,126.46347789889509
6.16,-0.03036886929487354,124.44929723106883
6.17,-0.028075315016916756,123.229245107178
6.18,-0.02289409300346017,122.55751983505213
6.19,-0.02105648626268757,121.3066181060711
6.2,-0.021208468775082295,120.81800016738399
6.21,-0.01266981489690584,120.48263510559671
6.22,-0.014037657508458378,120.48263510559671
6.23,-0.01587526424923098,120.36023183378711
6.24,-0.01678715932359934,120.05472122853875
6.25,-0.016179229274020435,119.26158783315459
6.26,-0.018610949472336057,119.17003416643522
6.27,-0.020296573700713933,115.84325255944744
6.28,-0.019066897009520238,111.78503676725596
6.29,-0.01724310686078352,108.64136249370694
6.3,-0.018914914497125512,106.62718182588065
6.31,-0.022120363849450653,105.40613455343853
6.32,-0.02227234636184538,105.43698415852876
6.33,-0.021208468775082295,105.46783376361898
6.34,-0.02227234636184538,105.71164515868689
6.35,-0.02380598807782853,105.65094109705774
6.36,-0.028987210091285114,105.62009149196751
6.37,-0.03173671190642608,105.77234922031604
6.38,-0.03981941824741835,106.50477855407105
6.39,-0.04745999364326233,106.4440744924419
6.4,-0.025629778226565248,106.87099322094856
6.41,0.0035094143771145945,106.932692431129
6.42,0.006866846241834462,106.84113876440964
6.43,0.0013678426115525388,106.84113876440964
6.44,0.00502923950106186,106.96254688766793
6.45,-0.0021415717655620557,106.20026309737399
6.46,-0.003965361914298774,105.98630615884501
6.47,-0.0035094143771145945,102.23260582335058
6.48,-0.023046075515854896,100.24927476061453
6.49,-0.08727941189068068,98.66201282129491
6.5,-0.07796702885849471,97.04489642543636
6.51,0.21041288011448095,95.76314509136509
6.52,0.6198123187297666,94.5729474240132
6.53,0.6062306087584923,93.71811481844858
6.54,0.27740953489648357,93.29119608994192
6.55,0.052185268119534736,92.52791715109669
6.56,-0.037083733024313274,92.25325615093857
6.57,-0.041657024988190954,91.73478375571253
6.58,-0.028227297529311482,91.39941869392524
6.59,-0.03173671190642608,90.94165036032837
6.6,-0.03631000387030376,90.91080075523814
6.61,-0.037235715536708,90.54458608836063
6.62,-0.04044116488903314,90.60529014998978
6.63,-0.037387698049102726,90.17837142148313
6.64,-0.042568920062559315,89.72060308788625
6.65,-0.04501445685291082,89.26283475428937
6.66,-0.047308011130867605,88.98817375413124
6.67,-0.04683824700164754,89.38523802609896
6.68,-0.05096940802037692,88.53040542053435
6.69,-0.05203328560714001,88.1034866920277
6.7,-0.053553110731087275,87.70642242005997
6.71,-0.04668626448925282,87.30935814809224
6.72,-0.035854056333119576,86.5470743577983
6.73,-0.026403507380574766,86.11916048074035
6.74,-0.010832208156133236,86.21071414745973
6.75,-0.006714863729439736,86.9132890246758
6.76,-0.007170811266623916,92.46721308946753
6.77,-0.010224278106554331,92.46721308946753
6.78,-0.01678715932359934,102.7212237620377
6.79,-0.021664416312266472,114.25698576867912
6.8,-0.025173830689381067,123.01528816864902
6.81,-0.028683245066495663,127.50141783789846
6.82,-0.03219265944361026,129.2100879004764
6.83,-0.03753968056149745,129.63700662898304
6.84,-0.037083733024313274,130.46098962945743
6.85,-0.04455850931572664,130.43113517291852
6.86,-0.04791594118044651,130.46098962945743
6.87,-0.04715602861847288,130.4002855678283
6.88,-0.04699022951404227,129.9733668393216
6.89,-0.045774369414884455,129.5763025673539
6.9,-0.04592635192727918,128.84387323359888
6.91,-0.04791594118044651,127.68452517133721
6.92,-0.04821990620523597,126.46347789889509
6.93,-0.05294518068150837,124.87621595957548
6.94,-0.055086752447070425,123.35065323043631
6.95,-0.050513460483192746,122.13060110654548
6.96,-0.04623031695206863,122.19130516817464
6.97,-0.04302486759974349,121.6728327729486
6.98,-0.03814761061107636,121.36732216770025
6.99,-0.035854056333119576,120.87870422901314
7.0,-0.036158021357909034,120.51248956213564
7.01,-0.03188869441882081,120.02486677199983
7.02,-0.029443157628469295,119.20088377152544
7.03,-0.0259337432513547,117.39966489367684
7.04,-0.026251524868180037,113.82907189162115
7.05,-0.029443157628469295,109.86240976614906
7.06,-0.030976799344452445,107.39046076472589
7.07,-0.03112878185684717,106.23011755391292
7.08,-0.03403026618438286,105.43698415852876
7.09,-0.02929117511607457,105.28472643018023
7.1,-0.025477795714170522,105.43698415852876
7.11,-0.02456590063980216,105.80319882540627
7.12,-0.020144591188319207,105.77234922031604
7.13,-0.021208468775082295,105.71164515868689
7.14,-0.02380598807782853,105.74249476377712
7.15,-0.026085725763749425,105.74249476377712
7.16,-0.03357431864719868,105.74249476377712
7.17,-0.03981941824741835,106.38337043081275
7.18,-0.049587748816788506,106.47492409753212
7.19,-0.02502184817698634,106.38337043081275
7.2,0.007930723828597549,106.59633222079043
7.21,0.007626758803808096,106.50477855407105
7.22,0.0018376067407726026,105.43698415852876
7.23,0.001989589253167329,102.9650351571056
7.24,-0.010224278106554331,100.61548942749204
7.25,-0.01724310686078352,98.72271688292406
7.26,-0.01602724676162571,97.13645009215574
7.27,-0.03997140075981308,95.82384915299424
7.28,-0.10573837885062201,95.03071575761008
7.29,-0.09704774246005084,94.51124821383274
7.3,0.2049276930762349,92.95483587960335
7.31,0.6037850719681409,92.61947081781607
7.32,0.5743419143396715,91.88704148406106
7.33,0.24810454318837313,90.9715048168673
7.34,0.0331183711100145,90.17837142148313
7.35,-0.05920409687376393,90.08681775476376
7.36,-0.06195359868890489,89.72060308788625
7.37,-0.05599864752143879,89.81215675460562
7.38,-0.06347342381285216,89.32353881591852
7.39,-0.06438531888722052,89.2936843593796
7.4,-0.06607094311559839,88.86577048232164
7.41,-0.06377738883764161,88.53040542053435
7.42,-0.06438531888722052,88.4697013589052
7.43,-0.06607094311559839,88.01193302530832
7.44,-0.06531103055362476,88.04178748184725
7.45,-0.0691244099555288,87.64571835843081
7.46,-0.07049225256708135,87.34020775318247
7.47,-0.07430563196898539,86.9132890246758
7.48,-0.07384968443180122,86.60777841942745
7.49,-0.06438531888722052,86.11916048074035
7.5,-0.06072392199771119,85.69224175223368
7.51,-0.04806792369284124,84.92896281338845
7.52,-0.03524612628354067,84.62444735669139
7.53,-0.021208468775082295,84.47119447979156
7.54,-0.011288155693317417,84.92896281338845
7.55,-0.010984190668527963,88.7135127539731
7.56,-0.02136045128747702,88.92746969250209
7.57,-0.03448621372156704,99.18048521652094
7.58,-0.03677976799952382,111.08246189003987
7.59,-0.0353981087959354,121.09266116754212
7.6,-0.035854056333119576,126.67743483742407
7.61,-0.039667435735023626,128.8747228386891
7.62,-0.03784364558628691,129.27079196210553
7.63,-0.03631000387030376,130.03407090095078
7.64,-0.037995628098681636,130.03407090095078
7.65,-0.0413530599634015,130.03407090095078
7.66,-0.0395154532226289,130.03407090095078
7.67,-0.037387698049102726,129.33249117228598
7.68,-0.039667435735023626,128.90457729522802
7.69,-0.0407451299138226,127.59297150461784
7.7,-0.040593147401427866,126.89039662740176
7.71,-0.0407451299138226,124.54085089778819
7.72,-0.04104909493861205,122.55751983505213
7.73,-0.0413530599634015,120.94040343919359
7.74,-0.04013719986424369,120.08557083362898
7.75,-0.0407451299138226,119.26158783315459
7.76,-0.04013719986424369,118.89537316627708
7.77,-0.039363470710234175,118.8038194995577
7.78,-0.03753968056149745,118.8038194995577
7.79,-0.03524612628354067,118.86452356118686
7.8,-0.03295257200558389,118.52915849939959
7.81,-0.03814761061107636,118.16294383252207
7.82,-0.038755540660655265,117.70517549892519
7.83,-0.03829959312347109,115.78254849781828
7.84,-0.03753968056149745,112.24280510085283
7.85,-0.03677976799952382,108.97672755549421
7.86,-0.03448621372156704,108.39755109863903
7.87,-0.0331183711100145,105.0100654300221
7.88,-0.03112878185684717,104.6438507631446
7.89,-0.03463819623396176,104.15523282445749
7.9,-0.04425454429093719,104.6438507631446
7.91,-0.04683824700164754,104.49059788624477
7.92,-0.0584441843117903,105.0100654300221
7.93,-0.05599864752143879,105.0100654300221
7.94,-0.025173830689381067,105.34543049180938
7.95,-0.0032054493523251413,105.68079555359667
7.96,-0.008386671365781728,106.10870943065461
7.97,-0.013429727458879472,106.50477855407105
7.98,-0.022576311386634833,106.4440744924419
7.99,-0.03372630115959341,106.50477855407105
8.0,-0.032344641956004984,106.53562815916128
8.01,-0.0395154532226289,105.40613455343853
8.02,-0.08896503611905857,103.39195388561225
8.03,-0.14007261005979432,101.01155855090848
8.04,-0.008690636390571181,98.9973778830822
8.05,0.38055039444435934,97.16630454869465
8.06,0.5857820525453837,95.39693042448758
8.07,0.38802517073577275,94.0843294853261
8.08,0.1393126974978207,93.77881888007774
8.09,-0.016483194298809886,92.86328221288397
8.1,-0.06806053236876572,92.19255208930942
8.11,-0.05630261254622824,91.36856908883502
8.12,-0.05783625426221139,91.42927315046417
8.13,-0.06698283818996675,90.87995115014792
8.14,-0.06683085567757202,91.00235442195752
8.15,-0.07003630502989716,90.60529014998978
8.16,-0.07369770191940649,90.69684381670916
8.17,-0.0726338243326434,90.08681775476376
8.18,-0.07568729117257382,89.75145269297647
8.19,-0.07553530866017909,89.68975348279602
8.2,-0.07293778935743285,89.44594208772811
8.21,-0.07003630502989716,89.23198514919915
8.22,-0.06759076823954566,88.86577048232164
8.23,-0.06087590451010592,88.49955581544413
8.24,-0.051881303094745285,87.67557281496974
8.25,-0.034182248696777585,87.27950369155332
8.26,-0.015253517607616191,86.94314348121473
8.27,0.00015198251239472653,86.08930602420142
8.28,0.003357431864719868,86.21071414745973
8.29,-0.0006079300495789061,86.94314348121473
8.3,-0.01815500193515188,90.94165036032837
8.31,-0.0366277854871291,100.00446821699533
8.32,-0.04638229946446336,111.44867655691738
8.33,-0.05004369635397268,120.63489283394523
8.34,-0.04699022951404227,126.3410746270855
8.35,-0.04776395866805178,128.386104900002
8.36,-0.04348081513692768,128.93542690031825
8.37,-0.04440652680333192,129.39319523391515
8.38,-0.04531842187770028,129.75940990079266
8.39,-0.041657024988190954,129.30164156719576
8.4,-0.04440652680333192,129.24093750556662
8.41,-0.04989171384157796,128.93542690031825
8.42,-0.05233725063192946,128.5085081718116
8.43,-0.05172932058235056,127.28746089936949
8.44,-0.047308011130867605,125.63949489842071
8.45,-0.04623031695206863,123.32079877389738
8.46,-0.049587748816788506,121.33647256261003
8.47,-0.05066544299558747,119.20088377152544
8.48,-0.04837188871763069,118.1937934376123
8.49,-0.047308011130867605,117.70517549892519
8.5,-0.04150504247579623,117.36981043713791
8.51,-0.04425454429093719,117.61362183220582
8.52,-0.04348081513692768,117.30811122695746
8.53,-0.03860355814826054,116.85034289336058
8.54,-0.036158021357909034,116.8811924984508
8.55,-0.029760939245294632,116.48412822648308
8.56,-0.03082481683205772,115.44718343603101
8.57,-0.02883522757889039,113.24989543476597
8.58,-0.027163419942548398,109.46534549418132
8.59,-0.025781760738959974,106.20026309737399
8.6,-0.030216886782478813,104.67370521968353
8.61,-0.03158472939403135,104.15523282445749
8.62,-0.033270353622409224,103.84972221920914
8.63,-0.03249662446839971,103.88057182429937
8.64,-0.0413530599634015,103.75816855248976
8.65,-0.048675853742420144,103.78901815757999
8.66,-0.015723281736836254,104.21593688608664
8.67,0.007018828754229189,104.55229709642522
8.68,0.003357431864719868,104.67370521968353
8.69,0.0044213094514829535,104.94836621984166
8.7,0.004117344426693501,104.91851176330273
8.71,-0.008690636390571181,104.97921582493187
8.72,-0.017091124348388793,105.0100654300221
8.73,-0.02090450375029284,106.87099322094856
8.74,-0.05753228923742194,106.20026309737399
8.75,-0.12008000138386984,104.55229709642522
8.76,-0.037387698049102726,101.86639115647309
8.77,0.3460641807227923,99.8522104886468
8.78,0.6492554763582359,98.2957981544174
8.79,0.48797439752335925,97.01404682034614
8.8,0.18356724178875788,95.82384915299424
8.81,0.00565098614267665,95.82384915299424
8.82,-0.0572145076205966,94.60280188055212
8.83,-0.04562238690248973,93.32105054648085
8.84,-0.04501445685291082,93.0165350897838
8.85,-0.05539071747185988,92.55876675618691
8.86,-0.05554269998425461,91.88704148406106
8.87,-0.05463080490988625,91.39941869392524
8.88,-0.05523873495946515,90.9715048168673
8.89,-0.05554269998425461,90.9715048168673
8.9,-0.05630261254622824,91.03320402704774
8.91,-0.05539071747185988,90.17837142148313
8.92,-0.05950806189855338,90.17837142148313
8.93,-0.06134566863932598,89.75145269297647
8.94,-0.05783625426221139,89.87286081623478
8.95,-0.05447882239749152,89.32353881591852
8.96,-0.04745999364326233,89.2936843593796
8.97,-0.03631000387030376,88.49955581544413
8.98,-0.023502023053039077,88.16419075365685
8.99,-0.012048068255291049,87.30935814809224
9.0,-0.0012158600991578122,86.85158981449536
9.01,0.0035094143771145945,88.01193302530832
9.02,-0.00045594753718417963,93.6265611517292
9.03,-0.00976833056937015,104.3990442195254
9.04,-0.015405500120010917,115.99650543634726
9.05,-0.016939141835994067,124.23633544109114
9.06,-0.01815500193515188,127.95918617149535
9.07,-0.021664416312266472,129.51559850572474
9.08,-0.023957970590223254,130.46098962945743
9.09,-0.023198058028249622,130.49183923454765
9.1,-0.02701143743015367,130.82720429633494
9.11,-0.026403507380574766,130.82720429633494
9.12,-0.02792333250452203,130.85805390142517
9.13,-0.028227297529311482,129.72856029570244
9.14,-0.03188869441882081,129.33249117228598
9.15,-0.0331183711100145,128.11144389984386
9.16,-0.03860355814826054,127.25661129427927
9.17,-0.04104909493861205,125.60864529333048
9.18,-0.03860355814826054,124.11393216928154
9.19,-0.041657024988190954,122.58836944014236
9.2,-0.04211297252537514,121.76438643966797
9.21,-0.04501445685291082,120.94040343919359
9.22,-0.04241693755016459,120.69559689557438
9.23,-0.03981941824741835,119.9940171669096
9.24,-0.036158021357909034,120.05472122853875
9.25,-0.03753968056149745,119.65865210512231
9.26,-0.037387698049102726,119.62780250003209
9.27,-0.033878283671988134,118.86452356118686
9.28,-0.027619367479732575,117.73602510401541
9.29,-0.028075315016916756,115.41633383094079
9.3,-0.029912921757689358,111.87659043397532
9.31,-0.030976799344452445,108.58065843207778
9.32,-0.030976799344452445,106.10870943065461
9.33,-0.029443157628469295,104.61300115805437
9.34,-0.03067283431966299,104.61300115805437
9.35,-0.035854056333119576,104.15523282445749
9.36,-0.03829959312347109,104.27763609626709
9.37,-0.04272090257495404,104.21593688608664
9.38,-0.05447882239749152,104.70455482477375
9.39,-0.0360060388455143,104.67370521968353
9.4,-0.007626758803808096,104.73540442986398
9.41,-0.00565098614267665,104.97921582493187
9.42,-0.008082706340992275,104.94836621984166
9.43,-0.009312383032185971,105.40613455343853
9.44,-0.019840626163529756,105.68079555359667
9.45,-0.023502023053039077,105.71164515868689
9.46,-0.0195366611387403,105.8340484304965
9.47,-0.03814761061107636,102.99588476219583
9.48,-0.10055715683716543,101.0424081559987
9.49,-0.10513044880104311,98.96752342654327
9.5,0.16632413492797438,96.739385820188
9.51,0.5838062798842523,95.4267848810265
9.52,0.5953984006023592,94.14503354695525
9.53,0.2703907061422544,94.11517909041632
9.54,0.04013719986424369,94.17588315204547
9.55,-0.05417485737270207,93.41260421320023
9.56,-0.05554269998425461,92.49706754600646
9.57,-0.04623031695206863,91.73478375571253
9.58,-0.05783625426221139,91.49097236064462
9.59,-0.061193686126931254,90.9715048168673
9.6,-0.06271351125087853,90.17837142148313
9.61,-0.06286549376327324,89.75145269297647
9.62,-0.06743878572715092,90.14752181639291
9.63,-0.07003630502989716,89.72060308788625
9.64,-0.06806053236876572,89.38523802609896
9.65,-0.07172192925827504,88.95732414904101
9.66,-0.07354571940701175,88.7135127539731
9.67,-0.07614323870975799,88.40800214872475
9.68,-0.07781504634609998,88.04178748184725
9.69,-0.07460959699377484,87.64571835843081
9.7,-0.06455111799165113,86.94314348121473
9.71,-0.05523873495946515,86.08930602420142
9.72,-0.04516643936530555,85.78379541895306
9.73,-0.03677976799952382,85.6006880855143
9.74,-0.03112878185684717,86.15001008583057
9.75,-0.030520851807268264,90.91080075523814
9.76,-0.033270353622409224,91.00235442195752
9.77,-0.040593147401427866,100.37068288387283
9.78,-0.037995628098681636,112.24280510085283
9.79,-0.03677976799952382,121.09266116754212
9.8,-0.036461986382698486,126.28037056545635
9.81,-0.03570207382072485,128.05073983821472
9.82,-0.035854056333119576,128.44680896163115
9.83,-0.03433423120917231,129.118534233757
9.84,-0.03677976799952382,129.33249117228598
9.85,-0.03921148819783945,129.33249117228598
9.86,-0.03860355814826054,128.8747228386891
9.87,-0.0395154532226289,128.8747228386891
9.88,-0.039363470710234175,128.1422935049341
9.89,-0.0366277854871291,127.19590723265011
9.9,-0.03677976799952382,125.94500550366907
9.91,-0.037995628098681636,123.74771750240403
9.92,-0.03463819623396176,122.25200922980379
9.93,-0.03677976799952382,121.3066181060711
9.94,-0.035550091308330124,120.48263510559671
9.95,-0.03509414377114595,120.54333916722587
9.96,-0.03494216125875122,120.45178550050649
9.97,-0.033270353622409224,119.65865210512231
9.98,-0.025325813201775793,119.65865210512231
9.99,-0.023502023053039077,119.62780250003209
