time_s,ECG1,ECG2,NIBP
0.0,0.00039514218661735673,0.05569128222127973,89.57935605310675
0.01,0.015446467295042128,0.060314615625947456,90.18589009557374
0.02,0.0032689035438344966,0.03716066365579701,90.62305236769146
0.03,0.0050290823751299955,0.07652113917349238,91.01672729336815
0.04,-0.0007902843732347135,0.06900200823310536,91.44244552694876
0.05,-0.004274720018860496,0.0464197587807364,91.92538395321493
0.06,-0.010632917021703417,0.056262984739061224,92.41976641801823
0.07,0.0050290823751299955,0.05569128222127973,92.76766518954646
0.08,-0.010632917021703417,0.06552207986400062,92.85692869013594
0.09,-0.00017961008482607124,0.07015784158427228,92.69900095832378
0.1,-0.015266857210216056,0.02269410429280446,92.30761484035452
0.11,0.002119399000947641,0.06841787739971991,91.75601218286566
0.12,-0.019900797398728694,0.05163965133439351,91.11743483249475
0.13,-0.007148481376077636,0.05105552050100807,90.52234482856487
0.14,-0.015266857210216056,0.045848056262954906,90.0394064022987
0.15,0.0015446467295042127,0.05684711557244666,89.56791201456963
0.16,-0.02281048077291105,0.03484899695346315,89.06208551122923
0.17,-0.0030892934590084254,0.062054579810499826,88.47843954583647
0.18,-0.020511471687137336,0.042952258727235605,87.85130623400266
0.19,0.0009698944580607847,0.0666903415307715,87.19899603738722
0.2,-0.024570659604206548,0.05569128222127973,86.5810179563831
0.21,-0.00599897683319078,0.03774479448918245,86.06603622221301
0.22,-0.012393095852998916,0.060898746459332895,85.66091725799922
0.23,0.0050290823751299955,0.06900200823310536,85.37023867915653
0.24,-0.017027036041511553,0.05105552050100807,85.15737956236623
0.25,0.0032689035438344966,0.06552207986400062,84.86441217581614
0.26,-0.011207669293146845,0.07131367493543922,84.45013798077264
0.27,-0.0013650366446781414,0.05047138966762263,83.97864359304359
0.28,-0.014692104938772628,0.05452302055450886,83.46137305116606
0.29,0.0026941512723910686,0.04236812789385017,83.04481004841514
0.3,-0.013542600395885772,0.06263871064388526,82.7770195466467
0.31,-0.010058164750259991,0.0493155563164557,82.66486796898299
0.32,-0.01760178831295498,0.059158782274780525,82.5847596992232
0.33,-0.0030892934590084254,0.043523961245017104,82.38334462097
0.34,0.005603834646573423,0.05510715138789429,82.058333926516
0.35,0.06825183223390707,0.07189780576882465,81.64177092376508
0.36,0.10302434465623447,0.13904799497694212,81.28242811369972
0.37,0.1883032129316531,0.09274009103664124,80.98030549631994
0.38,0.18481877728602733,0.07768940084026325,80.79033445660386
0.39,0.17727515372333233,0.05279548468556044,80.67818287894015
0.4,0.14016771019826602,0.09041599601870343,80.65529480186592
0.41,0.08854777181925312,0.05047138966762263,80.59807460918036
0.42,0.011387279377972917,0.031369068584358416,80.4309916465385
0.43,-0.013542600395885772,0.03542069947124464,80.19524445267398
0.44,-0.053559727295134446,0.023265806810585956,79.93660918173522
0.45,-0.03613754906700554,0.0030076523761548082,79.66652987225935
0.46,-0.05876841975509051,0.044108092078402536,79.4994469096175
0.47,-0.04195691581537024,0.006487580745259545,79.36440725487957
0.48,-0.06803630013211578,0.015746675870198935,79.22936760014163
0.49,-0.0564694106693168,0.006487580745259545,79.10577198394081
0.5,-0.214777739435016,0.09389592438780817,78.9936204062771
0.51,-0.2687326089167678,0.21835307684571828,78.87002479007627
0.52,0.28805865404405306,0.13672389995900433,78.700653019727
0.53,1.251954135271647,-0.18454805840298655,78.47634986439958
0.54,1.6312547124073442,-0.4554604819377903,78.20855936263114
0.55,0.5942938486725046,-0.40046518539033155,78.00485547667053
0.56,0.03516765460894475,-0.3281075319441609,77.89270389900682
0.57,-0.047740360546769736,-0.2343358907123922,77.82632847549156
0.58,-0.058193667483647085,-0.04445608491531301,77.72562093636496
0.59,-0.053559727295134446,0.015162545036813496,77.54480512747858
0.6,-0.09530111100871341,0.04005646119151631,77.26557058717302
0.61,-0.06110335085782944,0.05452302055450886,77.00693531623426
0.62,-0.0970612898400089,0.062054579810499826,76.73685600675839
0.63,-0.06167810312927287,0.044108092078402536,76.51255285143097
0.64,-0.09821079438289576,0.052211353852175,76.3431810810817
0.65,-0.06573729104634207,0.05047138966762263,76.1303219642914
0.66,-0.09009241854875734,0.059158782274780525,75.89457477042686
0.67,-0.058193667483647085,0.044692222911787975,75.62678426865841
0.68,-0.07500517142336735,0.07420947247115851,75.27888549713018
0.69,-0.049500539378065235,0.03947233035813087,74.90809864852771
0.7,-0.06864697442052443,0.0834685675960979,74.62657530051473
0.71,-0.021086223958580765,0.08000106754259712,74.45949233787287
0.72,-0.05704416294076023,0.059158782274780525,74.45949233787287
0.73,-0.011782421564590273,0.06784617488193842,74.58079914636627
0.74,-0.024570659604206548,0.09851925779247589,74.93098672560194
0.75,0.027624031046249758,0.0921559602032558,75.94035092457531
0.76,0.01199795366638156,0.11704987635795862,78.35275424819876
0.77,0.06997608904823736,0.1147257813400208,82.38334462097
0.78,0.056649020754142874,0.13556806660783738,87.23332815299855
0.79,0.1094184636760426,0.1205173764114594,91.81323237555122
0.8,0.12274553197013709,0.16856524453631266,95.89875413330061
0.81,0.18481877728602733,0.1755126729589182,99.38003065629043
0.82,0.17030628243208076,0.17899260132802292,101.93891767318893
0.83,0.232379527747971,0.1546703876911016,103.29618064369055
0.84,0.20917390478844258,0.17492854212553274,103.63263537668168
0.85,0.2381629724793705,0.15641035187565397,103.30762468222765
0.86,0.16218790659794233,0.12689310231628345,102.30970452179139
0.87,0.16218790659794233,0.08462440094726484,101.10808047539452
0.88,0.07694496033948893,0.08174103172714949,99.95223258314608
0.89,0.07985464371367128,0.057418818090228155,98.8513160758758
0.9,0.013722210480711844,0.04989968714984114,97.95410345456614
0.91,0.03459290233750132,0.04064059202490175,97.17819764174986
0.92,-0.03207836114993633,0.018058342572532794,96.39313659810391
0.93,0.024750269689032618,0.02269410429280446,95.76371447856268
0.94,-0.024570659604206548,0.028473271048639115,95.33799624498208
0.95,0.01893090294066791,0.03890062784034938,95.05647289696908
0.96,-0.015841609481659483,0.04236812789385017,94.87794589579012
0.97,0.012572705937824988,0.03079736606657692,94.76579431812641
0.98,-0.011207669293146845,0.04989968714984114,94.65364274046271
0.99,0.013722210480711844,0.014590842519032003,94.4499388545021
1.0,-0.021660976230024193,0.06957371075088685,94.12492816004809
1.01,0.02241533858629369,0.031369068584358416,93.54128219465531
1.02,-0.012967848124442344,0.05279548468556044,92.50902991860771
1.03,0.020691081771963406,0.044692222911787975,91.18381025601
1.04,-0.013542600395885772,0.044692222911787975,89.87003463194942
1.05,0.021265834043406835,0.018642473405918233,88.89500254858739
1.06,-0.034413292252675254,0.07710527000687781,88.34339989109853
1.07,0.005603834646573423,0.03195319941774385,88.15342885138244
1.08,-0.04195691581537024,0.03310903276891078,88.28846850612038
1.09,-0.0025145411875649977,0.04005646119151631,88.55854781559626
1.1,-0.03556279679556211,0.04815972296528877,88.91789062566161
1.11,0.004454330103686567,0.03716066365579701,89.37794097485356
1.12,-0.02629491641853683,0.05047138966762263,89.95014290170921
1.13,0.01199795366638156,0.02269410429280446,90.58872025208012
1.14,-0.040232659001039964,0.02558990182852376,91.22958641015846
1.15,-0.004849472290303924,0.019798306757085164,91.71252483642463
1.16,-0.033838539981231826,0.08115690089376404,91.93682799175205
1.17,0.006753339189460279,0.042952258727235605,91.98031533819308
1.18,-0.04716560827532631,0.042952258727235605,91.86816376052937
1.19,0.0050290823751299955,0.020370009274866655,91.5774851816867
1.2,-0.04659085600388288,0.05336718720334193,91.15176694810609
1.21,-0.014692104938772628,0.02384993764397139,90.64594044476569
1.22,-0.05298497502369102,0.03947233035813087,90.11722586435106
1.23,-0.008908660207373135,0.03195319941774385,89.5450239374954
1.24,-0.0547092318380213,0.05163965133439351,88.93848989502841
1.25,-0.029204599792719187,0.004163485727321739,88.35484392963563
1.26,-0.06746154786067236,0.03021323523319148,87.73915465633895
1.27,-0.015841609481659483,0.003591783209540246,87.08684445972351
1.28,-0.0547092318380213,0.060898746459332895,86.51464253286785
1.29,-0.02281048077291105,0.012850878334479635,86.05459218367591
1.3,-0.05179954846383895,0.03369316360229622,85.6494732194621
1.31,-0.009483412478816563,0.016318378387980427,85.18942287027015
1.32,-0.05241022275224759,0.04526392542956947,84.70648444400398
1.33,-0.019900797398728694,0.0006959856738209474,84.25787813334914
1.34,-0.06340235994360315,0.03774479448918245,83.79782778415719
1.35,-0.01817654058439841,-0.00914724028450388,83.41559689701761
1.36,-0.058193667483647085,0.017474211739147358,83.11347427963783
1.37,-0.021086223958580765,0.0047476165607071765,82.91205920138464
1.38,-0.06631204331778551,0.03369316360229622,82.71979935396114
1.39,-0.021660976230024193,0.020954140108252094,82.41767673658134
1.4,-0.06458778650345522,0.02905740188202455,82.02400181090465
1.41,-0.019900797398728694,0.005903449911874107,81.64177092376508
1.42,-0.05065004392095209,0.04005646119151631,81.33964830638529
1.43,0.023564843129180547,0.02964153271540999,81.11534515105788
1.44,0.01950565521211134,0.07246950828660614,80.9459733807086
1.45,0.12274553197013709,0.04874385379867421,80.79033445660386
1.46,0.13319883890701445,0.056262984739061224,80.56603130127644
1.47,0.16218790659794233,0.03947233035813087,80.3188400688748
1.48,0.11753683951018103,0.05336718720334193,80.17235637559975
1.49,0.10420977121608654,0.015162545036813496,80.06020479793604
1.5,-0.008908660207373135,0.04815972296528877,79.87023375821997
1.51,-0.021086223958580765,0.015162545036813496,79.53149021752142
1.52,-0.08836816173442706,0.013422580852261128,79.1950354845303
1.53,-0.05704416294076023,-0.01725050205827634,79.00506444481421
1.54,-0.09763604211145233,0.012850878334479635,78.91580094422473
1.55,-0.0738556668804805,-0.025353763832048796,78.90435690568762
1.56,-0.11329804150828575,-0.021886263778548007,78.82424863592783
1.57,-0.07152073577774157,0.0006959856738209474,78.71209705826412
1.58,-0.13474348563651864,0.042952258727235605,78.54501409562226
1.59,-0.3458571793410828,0.15872201857798784,78.32071094029484
1.6,-0.14983073276190864,0.16566944700059336,78.05063163081898
1.61,0.9051270614725034,-0.08266072708184144,77.80344039841734
1.62,1.621986832030319,-0.27137227121214974,77.70273285929073
1.63,1.0367812536500136,-0.39525772115227836,77.65695670514229
1.64,0.05894802983991659,-0.3026419132716766,77.51276181957466
1.65,-0.07906435934043657,-0.32926336529532785,77.33194601068827
1.66,-0.11214853696539889,-0.1243452976174746,77.19690635595033
1.67,-0.05585873638090816,-0.004511478564232212,77.0412674318456
1.68,-0.1144475460511726,0.03600483030463008,76.86045162295922
1.69,-0.07734010252610628,0.03079736606657692,76.67048058324313
1.7,-0.1144475460511726,0.058574651441395086,76.43473338937861
1.71,-0.07213141006615022,0.02558990182852376,76.08683461785036
1.72,-0.10517966567414733,0.05395131803672737,75.77097915422604
1.73,-0.05528398410946473,0.058574651441395086,75.5031886524576
1.74,-0.09472635873726998,0.06900200823310536,75.29948476649697
1.75,-0.04892578710662181,0.03484899695346315,75.18733318883328
1.76,-0.08024978590028864,0.07536530582232544,75.05229353409534
1.77,-0.040807411272483385,0.03542069947124464,74.80739110940111
1.78,-0.07328091460903707,0.07768940084026325,74.48009160723969
1.79,-0.02281048077291105,0.044108092078402536,74.15508091278566
1.8,-0.05179954846383895,0.10025922197702826,73.91933371892114
1.81,-0.00017961008482607124,0.062054579810499826,73.80718214125743
1.82,-0.027444420961423688,0.09274009103664124,73.80718214125743
1.83,0.02241533858629369,0.0834685675960979,74.02004125804773
1.84,-0.011207669293146845,0.10489498369729992,74.67235145466319
1.85,0.059522782111360015,0.07884523419143018,76.36606915815592
1.86,0.04968014946289131,0.14020382832810907,79.64364179518512
1.87,0.1094184636760426,0.1228414714293972,84.1113944400741
1.88,0.10072533557046076,0.1569944827090394,88.74851885531233
1.89,0.1633733331577944,0.14482716173277677,92.83404061306172
1.9,0.1552190353066908,0.18882339897074382,96.2924290589773
1.91,0.20626422141426023,0.1633577802982595,98.9520236150024
1.92,0.18018483709751468,0.18246010138152371,100.61369801059122
1.93,0.2230757253539805,0.14541129256616223,101.33238363072194
1.94,0.16858202561775049,0.15872201857798784,101.35527170779616
1.95,0.17436547034914998,0.07246950828660614,100.7830697809405
1.96,0.09433121655065262,0.09331179355442273,99.6707092351331
1.97,0.10187484011334762,0.044108092078402536,98.33404553399829
1.98,0.04271127817163974,0.09041599601870343,96.94245044788534
1.99,0.04734521836015238,0.015746675870198935,95.59663151592083
2.0,-0.005424224561747352,0.058002948923613594,94.48427097011343
2.01,0.03922684252601396,0.005903449911874107,93.57561431026664
2.02,-0.00017961008482607124,0.044108092078402536,92.77910922808357
2.03,0.042136525900196314,0.027901568530857623,92.0947557235642
2.04,-0.00017961008482607124,0.07189780576882465,91.55459710461247
2.05,0.03922684252601396,0.02905740188202455,91.25247448723269
2.06,-0.0030892934590084254,0.05163965133439351,91.08310271688342
2.07,0.04271127817163974,0.028473271048639115,90.8702436000931
2.08,0.007938765749312349,0.04989968714984114,90.4651246358793
2.09,0.055463594194290804,0.05510715138789429,89.78077113135994
2.1,0.01605714158345077,0.052211353852175,88.89500254858739
2.11,0.046770466088708954,0.042952258727235605,87.87190550336946
2.12,0.009663022563642633,0.06841787739971991,86.35671480105569
2.13,0.03577832889735339,0.04005646119151631,84.88730025289036
2.14,-0.005424224561747352,0.03310903276891078,84.04501901655884
2.15,0.03110846669187554,-0.0027839426952837895,83.77493970708296
2.16,-0.014692104938772628,0.06957371075088685,83.92142340035801
2.17,0.02241533858629369,0.03890062784034938,84.39291778808708
2.18,-0.018751292855841838,0.05105552050100807,85.01089586909119
2.19,0.009088270292199205,0.020954140108252094,85.63802918092499
2.2,-0.023959985315797905,0.06436624651283368,86.27889533900331
2.21,0.013147458209268416,0.027901568530857623,86.92891672791134
2.22,-0.025145411875649976,0.052211353852175,87.63615830950494
2.23,0.011387279377972917,0.020370009274866655,88.27702446758327
2.24,-0.030354104335606043,0.04121229454268324,88.73707481677522
2.25,0.003879577832243139,0.03600483030463008,88.97282201063975
2.26,-0.024570659604206548,0.059158782274780525,89.0185981647882
2.27,0.01893090294066791,0.04526392542956947,88.89500254858739
2.28,-0.02686966868998026,0.04236812789385017,88.55854781559626
2.29,0.0032689035438344966,0.007059283263041037,87.97490185020348
2.3,-0.025145411875649976,0.08000106754259712,87.27681549943958
2.31,0.0026941512723910686,0.03252490193552535,86.56957391784599
2.32,-0.03556279679556211,0.06726204404855299,85.9538846445493
2.33,0.0009698944580607847,0.03369316360229622,85.42517006413468
2.34,-0.0315036088784929,0.0493155563164557,84.95367567640562
2.35,0.0015446467295042127,0.009370949965374898,84.55084551989924
2.36,-0.023385233044354477,0.07362534163777308,84.20294674837099
2.37,0.0026941512723910686,0.03252490193552535,83.83215989976853
2.38,-0.02862984752127576,0.06436624651283368,83.4041528584805
2.39,0.010812527106529489,0.019798306757085164,82.95554654782566
2.4,-0.03268903543834497,0.05684711557244666,82.46116408302238
2.41,0.014296962752155272,0.04526392542956947,81.9576263873894
2.42,-0.023959985315797905,0.0666903415307715,81.5639514617127
2.43,0.006753339189460279,0.027901568530857623,81.2389407672587
2.44,-0.028019173232867116,0.06900200823310536,80.83382180304488
2.45,0.013147458209268416,0.03079736606657692,80.45387972361273
2.46,0.023564843129180547,0.08174103172714949,80.08309287501027
2.47,0.08678759298795763,0.07768940084026325,79.76723741138595
2.48,0.12217077969869367,0.14020382832810907,79.48800287108038
2.49,0.18887796520309652,0.04815972296528877,79.24081163867875
2.5,0.1552190353066908,0.09446762690558966,78.92724498276185
2.51,0.1749402226205934,0.04874385379867421,78.61138951913752
2.52,0.09839040446772183,0.08867603183415106,78.35275424819876
2.53,0.06419264431683787,0.044692222911787975,78.16278320848268
2.54,-0.027444420961423688,0.045848056262954906,77.97281216876661
2.55,-0.015266857210216056,0.031369068584358416,77.79199635988022
2.56,-0.06282760767215972,0.0464197587807364,77.53336108894146
2.57,-0.03556279679556211,0.019798306757085164,77.28616985653981
2.58,-0.07848960706899313,0.02558990182852376,77.09619881682374
2.59,-0.05122479619239552,0.015746675870198935,76.93827108501158
2.6,-0.07963911161187999,0.03831649700696394,76.81467546881076
2.61,-0.06340235994360315,0.026161604346305253,76.69336866031736
2.62,-0.35282605063233435,0.22530050526832382,76.59037231348334
2.63,-0.16955192007581127,0.19287502985763003,76.42328935084149
2.64,0.756661365355273,0.018058342572532794,76.25391758049221
2.65,1.5605242610028374,-0.2910587231287994,76.18754215697696
2.66,1.1812236838671402,-0.41956750647359575,76.10972269492459
2.67,0.20917390478844258,-0.38251869765823426,75.99528230955346
2.68,-0.05241022275224759,-0.2875912230752986,75.85108742398583
2.69,-0.05704416294076023,-0.16023827308166919,75.67027161509945
2.7,-0.07676535025466286,0.019798306757085164,75.5237879218244
2.71,-0.06688679558922893,0.008799247447593406,75.36814899771966
2.72,-0.10632917021703418,0.08462440094726484,75.17588915029616
2.73,-0.07906435934043657,0.013422580852261128,74.96303003350586
2.74,-0.10341948684285182,0.08984429350092193,74.795947070864
2.75,-0.06516253877489865,0.05105552050100807,74.71583880110421
2.76,-0.10226998229996496,0.09041599601870343,74.63801933905184
2.77,-0.0547092318380213,0.05395131803672737,74.5029796843139
2.78,-0.08312354725750577,0.08115690089376404,74.2901205675236
2.79,-0.04195691581537024,0.058574651441395086,73.95366583453247
2.8,-0.07963911161187999,0.10662251956624835,73.64009917861557
2.81,-0.04659085600388288,0.06436624651283368,73.35857583060259
2.82,-0.06746154786067236,0.11010244793535308,73.14571671381229
2.83,-0.02686966868998026,0.06379454399505219,73.02212109761146
2.84,-0.053559727295134446,0.11356994798885388,72.89852548141064
2.85,-0.0013650366446781414,0.10779078123301922,72.86419336579931
2.86,-0.015266857210216056,0.1378921616257752,73.0656084440525
2.87,0.029958962148988685,0.09331179355442273,74.06581741219618
2.88,0.0166318938548942,0.14309962586382835,76.44617742791571
2.89,0.07403527696530657,0.1205173764114594,80.27306391472635
2.9,0.08100414825655813,0.17666850631008513,84.86441217581614
2.91,0.1384075313669705,0.15815031606020635,89.19712516596717
2.92,0.14304147155548314,0.2160289818277805,92.99196834487388
2.93,0.20683897368570364,0.17899260132802292,96.12305728862803
2.94,0.19642158876579152,0.1946149940421824,98.48052922727334
2.95,0.24746677487336097,0.18535589891724302,99.79430485133392
2.96,0.2230757253539805,0.20271825581595487,100.15364766139928
2.97,0.232379527747971,0.14946292345304846,99.88356835192342
2.98,0.15927822322375998,0.14599542339954766,99.13283942388878
2.99,0.1418919670125963,0.08867603183415106,98.06625503222985
3.0,0.06997608904823736,0.11762157887574011,96.98822660203379
3.01,0.06940133677679393,0.0666903415307715,96.03379378803855
3.02,0.002119399000947641,0.09620759109014203,95.148025205266
3.03,0.021840586314850263,0.04236812789385017,94.28285589186024
3.04,-0.007723233647521064,0.07941693670921167,93.45201869406583
3.05,0.013722210480711844,0.020370009274866655,92.8019973051578
3.06,-0.018751292855841838,0.06436624651283368,92.33050291742875
3.07,0.014296962752155272,0.058574651441395086,92.00320341526731
3.08,-0.019326045127285266,0.07362534163777308,91.80178833701412
3.09,0.020691081771963406,0.047588020447507276,91.63241656666484
3.1,-0.020511471687137336,0.056262984739061224,91.43100148841165
3.11,0.01893090294066791,0.07189780576882465,91.16092217893578
3.12,-0.015841609481659483,0.08231273424493098,90.08518255644715
3.13,0.014296962752155272,0.04874385379867421,88.63636727764862
3.14,-0.011207669293146845,0.09100012685208887,87.62700307867524
3.15,0.011387279377972917,0.05105552050100807,86.81676515024763
3.16,-0.014692104938772628,0.10257088867936212,86.05459218367591
3.17,0.014296962752155272,0.03716066365579701,85.35879464061942
3.18,-0.01760178831295498,0.08984429350092193,84.75226059815243
3.19,0.01199795366638156,0.026745735179690693,84.29221024896047
3.2,-0.02629491641853683,0.09041599601870343,84.14572655568543
3.21,-0.00017961008482607124,0.05279548468556044,84.3150983260347
3.22,-0.03613754906700554,0.08810432931636956,84.77514867522665
3.23,-0.004274720018860496,0.044108092078402536,85.3359065635452
3.24,-0.040232659001039964,0.08405269842948333,85.89666445186374
3.25,-0.015841609481659483,0.03947233035813087,86.4482671093526
3.26,-0.043681172629700525,0.061470448977114386,87.03191307474536
3.27,-0.016452283770068125,0.0493155563164557,87.56978288598968
3.28,-0.05065004392095209,0.06379454399505219,87.92912569605504
3.29,-0.019326045127285266,0.03947233035813087,88.107652697234
3.3,-0.03904723244118789,0.09157182936987036,88.05272131225585
3.31,-0.014692104938772628,0.03831649700696394,87.75975392570575
3.32,-0.04659085600388288,0.08520853178065027,87.34547973066226
3.33,-0.015841609481659483,0.02905740188202455,86.85109726585897
3.34,-0.05007529164950866,0.08694849596520264,86.39104691666702
3.35,-0.023959985315797905,0.018058342572532794,85.98592795245322
3.36,-0.05704416294076023,0.07479360330454395,85.51443356472416
3.37,-0.027444420961423688,0.02269410429280446,84.95367567640562
3.38,-0.05991792429797737,0.06784617488193842,84.3150983260347
3.39,-0.0315036088784929,0.03831649700696394,83.66278812941925
3.4,-0.06631204331778551,0.0493155563164557,83.03565481758545
3.41,-0.0315036088784929,0.018058342572532794,82.48405216009661
3.42,-0.05991792429797737,0.07536530582232544,82.0697779650531
3.43,-0.04195691581537024,0.014006711685646565,81.73332323206198
3.44,-0.06340235994360315,0.06610621069738605,81.39686849907086
3.45,-0.03268903543834497,0.018058342572532794,81.00319357339417
3.46,-0.05761891521220366,0.07594943665571088,80.57518653210613
3.47,-0.033838539981231826,0.012850878334479635,80.2181325297482
3.48,-0.05934317202653394,0.07826110335804475,79.92516514319811
3.49,-0.0315036088784929,0.027901568530857623,79.62304252581832
3.5,-0.06803630013211578,0.059742913108165964,79.33007513926823
3.51,-0.03556279679556211,0.024421640161752887,79.02795252188844
3.52,-0.0547092318380213,0.0666903415307715,78.6800537503602
3.53,0.013722210480711844,0.042952258727235605,78.24060267053505
3.54,0.03635308116879682,0.11646574552457317,77.82632847549156
3.55,0.1361085222811968,0.13672389995900433,77.57913724308992
3.56,0.1436521458438918,0.07594943665571088,77.40976547274065
3.57,0.14480165038677864,0.04064059202490175,77.21979443302456
3.58,0.10999321594748604,0.12399730478056414,76.99549127769714
3.59,0.08042939598511471,0.045848056262954906,76.77118812236972
3.6,-0.015266857210216056,0.06495037734621913,76.6361484676318
3.61,-0.04716560827532631,-0.012043037820223179,76.56977304411654
3.62,-0.09357685419438312,0.0464197587807364,76.43473338937861
3.63,-0.08488372608880128,-0.01551053787372397,76.18754215697696
3.64,-0.10808934904832967,0.047588020447507276,75.96323900164954
3.65,-0.09878554665433918,-0.007991406933336949,75.83964338544872
3.66,-0.11153786267699024,0.03252490193552535,75.73893584632212
3.67,-0.08718273517457499,0.0018518190249878779,75.67027161509945
3.68,-0.15794910859604705,0.060314615625947456,75.54667599889862
3.69,-0.3464319316125262,0.19809492241128715,75.35670495918255
3.7,-0.10808934904832967,0.18940752980412925,75.14384584239224
3.71,0.9382112390974658,-0.08788061963549855,74.88521057145348
3.72,1.643432276158552,-0.3263675677596085,74.67235145466319
3.73,0.9410850004546829,-0.42882660159853514,74.53731179992525
3.74,0.03459290233750132,-0.2916428539621848,74.46864756870256
3.75,-0.08488372608880128,-0.3437423529739243,74.48009160723969
3.76,-0.11387279377972917,-0.11045044077226356,74.43660426079865
3.77,-0.08775748744601841,-0.02361379964749643,74.42516022226154
3.78,-0.12199116961386759,0.028473271048639115,74.2901205675236
3.79,-0.11272328923684231,0.02964153271540999,74.02004125804773
3.8,-0.1358929901794055,0.05510715138789429,73.75225075627928
3.81,-0.1260503575309368,0.05569128222127973,73.52565879324445
3.82,-0.12838528863367574,0.07189780576882465,73.32424371499125
3.83,-0.10747867475992104,0.059158782274780525,73.11138459820096
3.84,-0.11678247715391153,0.10546668621508141,72.92141355848487
3.85,-0.10460491340270389,0.05395131803672737,72.63989021047189
3.86,-0.10460491340270389,0.09274009103664124,72.28054740040653
3.87,-0.07791485479754971,0.05395131803672737,71.97842478302675
3.88,-0.09472635873726998,0.07074197241765771,71.77472089706613
3.89,-0.06922172669196786,0.07536530582232544,71.60763793442429
3.9,-0.08082453817173206,0.09505175773897509,71.49548635676058
3.91,-0.047740360546769736,0.08405269842948333,71.438266164075
3.92,-0.06282760767215972,0.09331179355442273,71.438266164075
3.93,-0.02281048077291105,0.08867603183415106,71.68545739647665
3.94,-0.021086223958580765,0.11125828128652002,72.50485055573395
3.95,0.021840586314850263,0.12225734059601177,74.51442372285102
3.96,0.03171914098028418,0.1569944827090394,78.05063163081898
3.97,0.07518478150819342,0.13904799497694212,82.44056481365557
3.98,0.09084678090502683,0.19404329152440092,86.6611262261429
3.99,0.14016771019826602,0.16799354201853117,90.45368059734218
4.0,0.1494355905752913,0.2038740891671218,93.73354204207881
4.01,0.1842440250145839,0.16856524453631266,96.21232078921751
4.02,0.16858202561775049,0.1726168754231989,97.73895553006841
4.03,0.18772846066020968,0.15641035187565397,98.3454895725354
4.04,0.1552190353066908,0.15582622104226854,98.25622607194592
4.05,0.125080463072876,0.09389592438780817,97.57187256742655
4.06,0.06997608904823736,0.12804893566745038,96.51673221430472
4.07,0.04041226908586603,0.04236812789385017,95.43870378410867
4.08,-0.0013650366446781414,0.07479360330454395,94.2485237762489
4.09,-0.005424224561747352,0.059742913108165964,92.98052430633676
4.1,-0.03613754906700554,0.07420947247115851,91.85900852969968
4.11,-0.033838539981231826,0.018058342572532794,90.91601975424156
4.12,-0.04892578710662181,0.06436624651283368,90.18589009557374
4.13,-0.033838539981231826,0.014590842519032003,89.63428743808488
4.14,-0.04429184691810917,0.07189780576882465,89.24290132011562
4.15,-0.03674822335541418,0.03947233035813087,89.05064147269212
4.16,-0.047740360546769736,0.06379454399505219,88.86067043297604
4.17,-0.03556279679556211,0.04815972296528877,88.63636727764862
4.18,-0.0564694106693168,0.04815972296528877,88.40062008378409
4.19,-0.025145411875649976,0.047588020447507276,87.99550111957029
4.2,-0.03556279679556211,0.07420947247115851,87.33403569212516
4.21,-0.029204599792719187,0.04121229454268324,86.40249095520414
4.22,-0.05241022275224759,0.06436624651283368,85.30157444793386
4.23,-0.0431064203582571,0.0006959856738209474,84.06790709363307
4.24,-0.05528398410946473,0.0805727700603786,83.11347427963783
4.25,-0.0547092318380213,0.02964153271540999,82.67631200752011
4.26,-0.07037123123485471,0.05395131803672737,82.60764777629743
4.27,-0.05876841975509051,0.012266747501094197,82.82050689308772
4.28,-0.06746154786067236,0.07536530582232544,83.14780639524916
4.29,-0.07443041915192393,0.03774479448918245,83.57352462882977
4.3,-0.08197404271461892,0.06900200823310536,84.1022392092444
4.31,-0.0738556668804805,0.026161604346305253,84.65155305902583
4.32,-0.08488372608880128,0.06784617488193842,85.3359065635452
4.33,-0.07094598350629815,0.02153827094163753,86.10952356865404
4.34,-0.08312354725750577,0.06379454399505219,86.73894568819527
4.35,-0.07676535025466286,0.018058342572532794,87.14406465240907
4.36,-0.08603323063168813,0.062054579810499826,87.33403569212516
4.37,-0.08024978590028864,0.027901568530857623,87.23332815299855
4.38,-0.0912419230916442,0.05047138966762263,86.96324884352268
4.39,-0.06631204331778551,0.059742913108165964,86.5810179563831
4.4,-0.09181667536308763,0.06726204404855299,86.10036833782435
4.41,-0.08660798290313156,0.04064059202490175,85.52587760326128
4.42,-0.09066717082020077,0.05684711557244666,84.9216323685017
4.43,-0.08488372608880128,0.03252490193552535,84.21439078690811
4.44,-0.09821079438289576,0.05163965133439351,83.56208059029267
4.45,-0.08024978590028864,0.0464197587807364,83.0905862025636
4.46,-0.05704416294076023,0.07131367493543922,82.68775604605722
4.47,-0.025720164147093404,0.03542069947124464,82.2711930433063
4.48,0.017206646126337627,0.12399730478056414,81.79969865557725
4.49,0.10420977121608654,0.06263871064388526,81.40602372990055
4.5,0.10884371140459918,0.11241411463768694,81.10390111252076
4.51,0.08969727636213998,0.0493155563164557,80.75600234099252
4.52,0.05316458510851709,0.07768940084026325,80.3188400688748
4.53,0.003879577832243139,0.042952258727235605,79.85878971968285
4.54,-0.07213141006615022,0.04700388961412184,79.4994469096175
4.55,-0.1069039224884776,0.02269410429280446,79.17214740745607
4.56,-0.13068429771944945,0.04989968714984114,78.81280459739071
4.57,-0.12256592188531103,-0.001628109344116859,78.49923794147381
4.58,-0.13707841673925758,0.02905740188202455,78.19711532409403
4.59,-0.13244447655074493,0.0024235215427693703,78.01629951520763
4.6,-0.13822792128214442,0.031369068584358416,77.8606605911029
4.61,-0.13416873336507523,0.03079736606657692,77.62491339723837
4.62,-0.3736967424891238,0.14599542339954766,77.33194601068827
4.63,-0.3313446844871362,0.1708769112386465,77.01837935477137
4.64,0.487569536268853,0.08462440094726484,76.80552023798107
4.65,1.3610133787780374,-0.19091135599220665,76.6361484676318
4.66,1.3952111389289215,-0.37036380499757554,76.43473338937861
4.67,0.28805865404405306,-0.3640005074083555,76.26536161902933
4.68,-0.1393774258250313,-0.23144009317667288,76.07539057931325
4.69,-0.13531823790796207,-0.22101273638496263,75.91746284750108
4.7,-0.11038835813410339,0.0030076523761548082,75.8167553083745
4.71,-0.13880267355358786,0.03021323523319148,75.7160477692479
4.72,-0.1550394252218647,0.05452302055450886,75.62678426865841
4.73,-0.13068429771944945,0.05510715138789429,75.49174461392047
4.74,-0.14056285238488336,0.08520853178065027,75.3109288050341
4.75,-0.13765316901070102,0.03484899695346315,75.09806968824378
4.76,-0.14868122821902177,0.07710527000687781,74.87376653291638
4.77,-0.12838528863367574,0.05510715138789429,74.69523953173741
4.78,-0.12256592188531103,0.060314615625947456,74.52586776138813
4.79,-0.10169523002852154,0.06321041316166676,74.36794002957598
4.8,-0.09878554665433918,0.1147257813400208,74.23290037483804
4.81,-0.0970612898400089,0.061470448977114386,74.12074879717433
4.82,-0.09936029892578262,0.10315501951274755,74.02004125804773
4.83,-0.08718273517457499,0.06726204404855299,73.84151425686876
4.84,-0.08197404271461892,0.10025922197702826,73.70647460213084
4.85,-0.06688679558922893,0.0921559602032558,73.60576706300424
4.86,-0.0564694106693168,0.10257088867936212,73.49361548534053
4.87,-0.0332637877097884,0.07710527000687781,73.50505952387765
4.88,-0.019326045127285266,0.11820570970912554,73.99715318097351
4.89,0.010237774835086061,0.14715125675071458,75.64738353802522
4.9,0.03577832889735339,0.16104611359592563,78.71209705826412
4.91,0.060708208671212086,0.16104611359592563,82.61909181483453
4.92,0.08506333617362734,0.17725263714347056,86.60390603345733
4.93,0.1111427204903729,0.18592760143502451,90.24082148055189
4.94,0.13147458209268414,0.20445822000050723,93.4176865784545
4.95,0.13959295792682258,0.17666850631008513,95.82093467124825
4.96,0.13783277909552707,0.17377270877436582,97.27890518087646
4.97,0.12913965098994523,0.1662535778339788,97.89688326188057
4.98,0.10072533557046076,0.14251549503044292,97.73895553006841
4.99,0.05779852529702973,0.08174103172714949,97.03171394847482
5.0,0.01893090294066791,0.09041599601870343,95.97657359535299
5.01,-0.0141173526673292,0.03600483030463008,94.88938993432724
5.02,-0.03498804452411868,0.08289686507831641,93.85713765827964
5.03,-0.047740360546769736,0.03716066365579701,92.81115253598749
5.04,-0.05298497502369102,0.05569128222127973,91.62326133583515
5.05,-0.05007529164950866,0.031369068584358416,90.64594044476569
5.06,-0.0431064203582571,0.058002948923613594,89.93869886317209
5.07,-0.044866599189552596,0.06263871064388526,89.3321648207051
5.08,-0.04892578710662181,0.0666903415307715,88.93848989502841
5.09,-0.04195691581537024,0.060314615625947456,88.67069939325997
5.1,-0.04195691581537024,0.06495037734621913,88.40062008378409
5.11,-0.04138216354392681,0.042952258727235605,88.07560938933008
5.12,-0.040232659001039964,0.06957371075088685,87.70482254072762
5.13,-0.03732297562685761,0.03890062784034938,87.07540042118639
5.14,-0.028019173232867116,0.09851925779247589,86.17818779987672
5.15,-0.029779352064162615,0.05105552050100807,85.05438321553221
5.16,-0.04835103483517838,0.08289686507831641,83.94431147743224
5.17,-0.043681172629700525,0.028473271048639115,83.04481004841514
5.18,-0.047740360546769736,0.07420947247115851,82.44056481365557
5.19,-0.054134479566577874,0.0464197587807364,82.17048550417971
5.2,-0.05934317202653394,0.05510715138789429,82.25974900476919
5.21,-0.06052859858638601,0.03426486612007771,82.74268743103536
5.22,-0.07734010252610628,0.03484899695346315,83.48426112824029
5.23,-0.07500517142336735,0.03774479448918245,84.28076621042337
5.24,-0.05991792429797737,0.03426486612007771,84.9422316378685
5.25,-0.06631204331778551,0.04815972296528877,85.4480581412089
5.26,-0.06979647896341129,0.04236812789385017,85.89666445186374
5.27,-0.07270616233759364,0.02905740188202455,86.32467149315177
5.28,-0.07557992369481079,0.03890062784034938,86.69316953404682
5.29,-0.07094598350629815,0.03890062784034938,86.8739853429332
5.3,-0.07848960706899313,0.03542069947124464,86.79616588088084
5.31,-0.07443041915192393,0.015162545036813496,86.51464253286785
5.32,-0.07152073577774157,0.03021323523319148,86.10952356865404
5.33,-0.07619059798321942,0.025005770995138323,85.60598587302107
5.34,-0.08082453817173206,0.052211353852175,85.16653479319592
5.35,-0.07619059798321942,0.03369316360229622,84.80719198313056
5.36,-0.08254879498606235,0.04815972296528877,84.43869394223553
5.37,-0.08488372608880128,0.007643414096426476,84.02213093948461
5.38,-0.07270616233759364,0.05510715138789429,83.51630443614421
5.39,-0.03556279679556211,0.044692222911787975,83.03565481758545
5.4,0.002119399000947641,0.07015784158427228,82.51838427570794
5.41,0.05258983283707366,0.08289686507831641,81.90040619470383
5.42,0.12799014644705836,0.05684711557244666,81.37398042199663
5.43,0.12102127515580681,0.0493155563164557,80.93452934217149
5.44,0.10130008784190418,0.0979475552746944,80.57518653210613
5.45,0.056074268482699446,0.044108092078402536,80.29595199180058
5.46,-0.01760178831295498,0.042952258727235605,80.07164883647316
5.47,-0.07734010252610628,-0.001043978510731421,79.85878971968285
5.48,-0.1069039224884776,0.023265806810585956,79.56582233313276
5.49,-0.12199116961386759,-0.00045984767734598306,79.24081163867875
5.5,-0.11793198169679839,0.03369316360229622,78.84713671300204
5.51,-0.12896004090511917,-0.01609466870710941,78.43286251795855
5.52,-0.13068429771944945,0.02269410429280446,78.05063163081898
5.53,-0.13010954544800601,0.010539211632145775,77.73706497490208
5.54,-0.1358929901794055,0.03079736606657692,77.46698566542621
5.55,-0.3823898705947057,0.17899260132802292,77.23123847156168
5.56,-0.30641480471327753,0.20502992251828872,77.02982339330849
5.57,0.5786318492756711,0.0464197587807364,76.9497151235487
5.58,1.424810880908258,-0.22101273638496263,76.86045162295922
5.59,1.2954556978165215,-0.45256468440207104,76.68192462178024
5.6,0.28223928729568837,-0.36689630494407477,76.46677669728253
5.61,-0.06340235994360315,-0.31653677011688763,76.2218742725883
5.62,-0.12838528863367574,-0.19554711771247832,75.98612707872377
5.63,-0.11214853696539889,-0.021886263778548007,75.77097915422604
5.64,-0.12838528863367574,0.043523961245017104,75.59245215304708
5.65,-0.14228710919921364,0.03195319941774385,75.5237879218244
5.66,-0.13125904999089288,0.028473271048639115,75.44596845977203
5.67,-0.13765316901070102,0.07941693670921167,75.35670495918255
5.68,-0.12432610071660652,0.062054579810499826,75.25599742005595
5.69,-0.12256592188531103,0.07362534163777308,75.14384584239224
5.7,-0.11502229832261603,0.06784617488193842,74.98591811058009
5.71,-0.11559705059405946,0.043523961245017104,74.75017091671555
5.72,-0.09993505119722604,0.0857926626140357,74.51442372285102
5.73,-0.10808934904832967,0.06726204404855299,74.21230110547123
5.74,-0.10632917021703418,0.07305363911999158,73.95366583453247
5.75,-0.10460491340270389,0.08231273424493098,73.87584637248011
5.76,-0.09066717082020077,0.07189780576882465,73.85295829540588
5.77,-0.08951766627731392,0.10141505532819518,73.86440233394299
5.78,-0.06340235994360315,0.11067415045313457,73.90788968038402
5.79,-0.06340235994360315,0.10894661458418615,74.12074879717433
5.8,-0.029779352064162615,0.11762157887574011,74.77305899378977
5.81,-0.025720164147093404,0.12862063818523187,76.36606915815592
5.82,0.017206646126337627,0.12862063818523187,79.29574302365688
5.83,0.03922684252601396,0.18709586310179538,83.1912937416902
5.84,0.07231102015097629,0.16161781611370712,87.2882595379767
5.85,0.08969727636213998,0.18535589891724302,91.11743483249475
5.86,0.13028915553283207,0.18304423221490915,94.38356343098684
5.87,0.1442268981153352,0.18535589891724302,96.89896310144431
5.88,0.18018483709751468,0.19404329152440092,98.40270976522098
5.89,0.16161315432649892,0.15872201857798784,98.98635573061374
5.9,0.15870347095231654,0.16277364946487408,98.89709223002426
5.91,0.11405240386455524,0.14077553084589056,98.21044991779748
5.92,0.07173626787953286,0.11184241211990545,97.24686187297254
5.93,0.013722210480711844,0.06321041316166676,96.39313659810391
5.94,-0.00599897683319078,0.08405269842948333,95.70878309358454
5.95,-0.045441351460996024,0.08000106754259712,95.03358481989487
5.96,-0.03904723244118789,0.06436624651283368,94.20503642980788
5.97,-0.07328091460903707,0.026745735179690693,93.35131115493924
5.98,-0.0431064203582571,0.07826110335804475,92.65551361188275
5.99,-0.06803630013211578,0.05395131803672737,92.0947557235642
6.0,-0.05007529164950866,0.07305363911999158,91.66674868227618
6.01,-0.07328091460903707,0.05395131803672737,91.45388956548588
6.02,-0.04601610373243945,0.062054579810499826,91.3760701034335
6.03,-0.07152073577774157,0.07074197241765771,91.33029394928505
6.04,-0.054134479566577874,0.05452302055450886,91.19525429454713
6.05,-0.06282760767215972,0.07420947247115851,90.91601975424156
6.06,-0.04601610373243945,0.08810432931636956,90.43308132797539
6.07,-0.06746154786067236,0.08752019848298413,89.76932709282282
6.08,-0.045441351460996024,0.0666903415307715,88.84922639443893
6.09,-0.06167810312927287,0.07826110335804475,87.74830988716865
6.1,-0.04601610373243945,0.059742913108165964,86.79616588088084
6.11,-0.07791485479754971,0.08462440094726484,86.10036833782435
6.12,-0.05585873638090816,0.060898746459332895,85.7501807585887
6.13,-0.08369829952894921,0.07710527000687781,85.7616247971258
6.14,-0.07213141006615022,0.04815972296528877,86.03170410660168
6.15,-0.09066717082020077,0.059158782274780525,86.4803104172565
6.16,-0.07500517142336735,0.05163965133439351,86.95180480498557
6.17,-0.10632917021703418,0.058002948923613594,87.43474323125174
6.18,-0.07676535025466286,0.06263871064388526,87.95201377312925
6.19,-0.10981360586265997,0.0464197587807364,88.47843954583647
6.2,-0.08603323063168813,0.05395131803672737,88.92704585649129
6.21,-0.11214853696539889,0.045848056262954906,89.15363781952614
6.22,-0.0854584783602447,0.06436624651283368,89.13074974245191
6.23,-0.11329804150828575,0.06957371075088685,88.92704585649129
6.24,-0.0912419230916442,0.04815972296528877,88.62492323911151
6.25,-0.11735722942535495,0.03947233035813087,88.31135658319461
6.26,-0.0854584783602447,0.05510715138789429,88.01838919664452
6.27,-0.11965623851112867,0.060898746459332895,87.72771061780185
6.28,-0.08718273517457499,0.05163965133439351,87.33403569212516
6.29,-0.12256592188531103,0.05279548468556044,86.82820918878475
6.3,-0.08603323063168813,0.03542069947124464,86.24456322339198
6.31,-0.1162077248824681,0.05510715138789429,85.57165375740972
6.32,-0.08951766627731392,0.03021323523319148,85.0223399076283
6.33,-0.11329804150828575,0.03658896113801552,84.56228955843635
6.34,-0.09066717082020077,0.047588020447507276,84.1228384786112
6.35,-0.11735722942535495,0.04989968714984114,83.66278812941925
6.36,-0.08197404271461892,0.04874385379867421,83.14780639524916
6.37,-0.12371542642819788,0.057418818090228155,82.68775604605722
6.38,-0.08312354725750577,0.03947233035813087,82.29408112038053
6.39,-0.12662510980238023,0.03890062784034938,81.9576263873894
6.4,-0.09936029892578262,0.027901568530857623,81.7653665399659
6.41,-0.12432610071660652,0.05569128222127973,81.63261569293539
6.42,-0.09472635873726998,0.026745735179690693,81.42891180697477
6.43,-0.1144475460511726,0.06263871064388526,81.10390111252076
6.44,-0.05007529164950866,0.03716066365579701,80.72167022538119
6.45,-0.045441351460996024,0.060314615625947456,80.36232741531583
6.46,0.05258983283707366,0.14020382832810907,80.03731672086181
6.47,0.07403527696530657,0.0666903415307715,79.80156952699728
6.48,0.09666614765339154,0.06841787739971991,79.58871041020699
6.49,0.05316458510851709,0.0857926626140357,79.44222671693193
6.5,0.04271127817163974,0.05336718720334193,79.29574302365688
6.51,-0.06631204331778551,0.023265806810585956,79.10577198394081
6.52,-0.07676535025466286,0.006487580745259545,78.91580094422473
6.53,-0.160284039698786,0.031369068584358416,78.73498513533835
6.54,-0.13010954544800601,0.0012676881916024397,78.49923794147381
6.55,-0.1707014246186981,0.020370009274866655,78.22000340116826
6.56,-0.1411376046563268,-0.019562168760610198,77.82632847549156
6.57,-0.17881980045283655,0.02384993764397139,77.48987374250044
6.58,-0.1411376046563268,0.010539211632145775,77.34339004922539
6.59,-0.19390704757822652,0.02905740188202455,77.3548340877625
6.6,-0.4160488004911114,0.16682528035176028,77.37772216483673
6.61,-0.31571860710726807,0.19345916069101549,77.33194601068827
6.62,0.6783872903880711,-0.029405394718935027,77.26557058717302
6.63,1.4300195733682142,-0.2933703898311333,77.11908689389797
6.64,1.1377221213222657,-0.4699270413007829,76.8490075844221
6.65,0.09490596882209605,-0.35241731726547826,76.56977304411654
6.66,-0.10169523002852154,-0.3402624246048196,76.37751319669303
6.67,-0.17767029590994968,-0.1914954868255921,76.3225818117149
6.68,-0.11965623851112867,-0.020146299593995637,76.334025850252
6.69,-0.18812360284682703,0.031369068584358416,76.3225818117149
6.7,-0.1492559804904652,0.028473271048639115,76.27680565756644
6.71,-0.1973914832238523,0.058002948923613594,76.18754215697696
6.72,-0.15388992067897786,0.02964153271540999,75.9289068860382
6.73,-0.1840644149297578,0.07015784158427228,75.49174461392047
6.74,-0.13650366446781415,0.059742913108165964,75.08662564970668
6.75,-0.18521391947264468,0.07015784158427228,74.83943441730503
6.76,-0.1358929901794055,0.006487580745259545,74.71583880110421
6.77,-0.16779174124451576,0.08810432931636956,74.64946337758896
6.78,-0.12432610071660652,0.056262984739061224,74.54875583846236
6.79,-0.17127617689014155,0.061470448977114386,74.24434441337515
6.8,-0.12026691279953731,0.03079736606657692,73.87584637248011
6.81,-0.15155498957623892,0.0863643651318172,73.60576706300424
6.82,-0.10054572548563469,0.05336718720334193,73.49361548534053
6.83,-0.11850673396824181,0.11299824547107239,73.52565879324445
6.84,-0.06573729104634207,0.06957371075088685,73.80718214125743
6.85,-0.08254879498606235,0.12399730478056414,74.71583880110421
6.86,-0.018751292855841838,0.09620759109014203,76.78263216090684
6.87,-0.0332637877097884,0.13730803079238976,80.08309287501027
6.88,0.0380773379831271,0.11415407882223931,84.05646305509595
6.89,0.02299009085773712,0.18014843467918987,88.13054077430823
6.9,0.09839040446772183,0.14541129256616223,91.99175937673019
6.91,0.08678759298795763,0.19287502985763003,95.2807760522965
6.92,0.1459511549296655,0.15409868517332012,97.7183562607016
6.93,0.11232814705022497,0.18304423221490915,99.19921484740405
6.94,0.15406953076380392,0.15525451852448705,99.73708465864836
6.95,0.10708353257330368,0.16856524453631266,99.59288977308074
6.96,0.10187484011334762,0.10720665039963378,98.78494065236055
6.97,0.012572705937824988,0.11356994798885388,97.61764872157501
6.98,0.01950565521211134,0.0464197587807364,96.57166359928287
6.99,-0.06052859858638601,0.07479360330454395,95.72022713212165
7.0,-0.0431064203582571,0.04064059202490175,95.01298555052806
7.01,-0.10169523002852154,0.04874385379867421,94.38356343098684
7.02,-0.05991792429797737,0.03426486612007771,93.6213904644151
7.03,-0.1069039224884776,0.045848056262954906,92.79055326662069
7.04,-0.06516253877489865,0.015162545036813496,92.22750657059473
7.05,-0.10923885359121653,0.059742913108165964,91.91393991467783
7.06,-0.07037123123485471,-0.020146299593995637,91.77890025993989
7.07,-0.09763604211145233,0.11010244793535308,91.76745622140278
7.08,-0.0564694106693168,0.02558990182852376,91.70108079788751
7.09,-0.10517966567414733,0.06726204404855299,91.49966571963432
7.1,-0.05179954846383895,0.03947233035813087,91.06021463980919
7.11,-0.10341948684285182,0.058002948923613594,90.4445253665125
7.12,-0.05007529164950866,0.043523961245017104,89.61368816871808
7.13,-0.11735722942535495,0.05452302055450886,88.60203516203728
7.14,-0.06746154786067236,0.03021323523319148,87.58122692452679
7.15,-0.1144475460511726,0.042952258727235605,86.85109726585897
7.16,-0.07270616233759364,0.024421640161752887,86.51464253286785
7.17,-0.12953479317656258,0.062054579810499826,86.41393499374125
7.18,-0.08254879498606235,0.004163485727321739,86.54897464847919
7.19,-0.13244447655074493,0.07594943665571088,86.89687342000742
7.2,-0.09009241854875734,0.016318378387980427,87.41185515417752
7.21,-0.13531823790796207,0.07131367493543922,87.94056973459215
7.22,-0.10226998229996496,0.017474211739147358,88.44639623793255
7.23,-0.13765316901070102,0.05452302055450886,88.97282201063975
7.24,-0.09066717082020077,0.017474211739147358,89.50153659105437
7.25,-0.1474958016591697,0.04236812789385017,89.90436674756076
7.26,-0.09936029892578262,0.0047476165607071765,90.1515579799624
7.27,-0.1469210493877263,0.03658896113801552,90.18589009557374
7.28,-0.10226998229996496,0.020954140108252094,90.01651832522447
7.29,-0.1492559804904652,0.060314615625947456,89.69150763077046
7.3,-0.1144475460511726,-0.016678799540494844,89.32072078216798
7.31,-0.15040548503335208,0.06784617488193842,88.88355851005026
7.32,-0.11793198169679839,0.026161604346305253,88.40062008378409
7.33,-0.1492559804904652,0.057418818090228155,87.89479358044369
7.34,-0.1069039224884776,0.008799247447593406,87.3798118462736
7.35,-0.1550394252218647,0.044108092078402536,86.82820918878475
7.36,-0.11272328923684231,0.014006711685646565,86.22167514631775
7.37,-0.15852386086749048,0.045848056262954906,85.59454183448395
7.38,-0.1144475460511726,0.018642473405918233,85.01089586909119
7.39,-0.16085879197022943,0.03542069947124464,84.56228955843635
7.4,-0.0930021019229397,0.020954140108252094,84.21439078690811
7.41,-0.10341948684285182,0.044108092078402536,83.89853532328378
7.42,-0.021660976230024193,0.07305363911999158,83.55063655175555
7.43,-0.0013650366446781414,0.10372672203052904,83.12491831817493
7.44,0.0937564642792092,0.05163965133439351,82.71979935396114
7.45,0.02880945760610183,0.0863643651318172,82.38334462097
7.46,0.05258983283707366,0.04005646119151631,82.12470935003125
7.47,-0.03613754906700554,0.06321041316166676,81.91185023324094
7.48,-0.06922172669196786,0.006487580745259545,81.72187919352487
7.49,-0.16491797988729862,0.03079736606657692,81.51817530756425
7.5,-0.15388992067897786,-0.028833692201153532,81.36253638345951
7.51,-0.2008759188694781,0.03079736606657692,81.20460865164736
7.52,-0.16606748443018549,-0.032301192254654325,81.00319357339417
7.53,-0.20956904697505993,0.019798306757085164,80.76744637952963
7.54,-0.1684024155329244,-0.012043037820223179,80.4195476080014
7.55,-0.2008759188694781,0.03369316360229622,80.09453691354739
7.56,-0.23449892674891862,0.02558990182852376,79.89083302758677
7.57,-0.4862044996241749,0.1691493753696981,79.80156952699728
7.58,-0.10403016113126047,0.13094473320316966,79.74663814201914
7.59,0.8825321128013837,-0.05835094176052407,79.62304252581832
7.6,1.6504011474498035,-0.33621079371793333,79.41933863985771
7.61,0.722463605204389,-0.3281075319441609,79.16299217662637
7.62,-0.05876841975509051,-0.29569448484907107,78.92724498276185
7.63,-0.2263805509147802,-0.27659216376580686,78.80364936656102
7.64,-0.15446467295042127,-0.12029366673058839,78.74642917387546
7.65,-0.1840644149297578,0.027317437697472184,78.66860971182308
7.66,-0.15967336541037735,0.03831649700696394,78.53357005708516
7.67,-0.21420298716357258,0.059158782274780525,78.42141847942145
7.68,-0.16549273215874205,0.03369316360229622,78.30926690175774
7.69,-0.21014379924650337,0.06900200823310536,78.09640778496743
7.7,-0.1567996040531602,0.006487580745259545,77.84921655256579
7.71,-0.1956313043925568,0.07536530582232544,77.64551266660517
7.72,-0.1358929901794055,0.07479360330454395,77.47842970396331
7.73,-0.19042261193260074,0.08867603183415106,77.33194601068827
7.74,-0.12026691279953731,0.04874385379867421,77.1740182788761
7.75,-0.16897716780436783,0.10546668621508141,77.01837935477137
7.76,-0.12084166507098074,0.03542069947124464,76.8490075844221
7.77,-0.15967336541037735,0.10779078123301922,76.70252389114705
7.78,-0.10866410131977311,0.060314615625947456,76.54688496704232
7.79,-0.13765316901070102,0.09679172192352746,76.3431810810817
7.8,-0.08254879498606235,0.07884523419143018,76.21043023405119
7.81,-0.12084166507098074,0.10315501951274755,76.15321004136563
7.82,-0.04835103483517838,0.11125828128652002,76.36606915815592
7.83,-0.07094598350629815,0.1569944827090394,77.27701462571012
7.84,0.004454330103686567,0.12572484064951256,79.27514375429008
7.85,-0.017027036041511553,0.15294285182215317,82.44056481365557
7.86,0.06243246548554237,0.16451361364942643,86.17818779987672
7.87,0.0456209615458221,0.17666850631008513,90.02796236376157
7.88,0.1111427204903729,0.17609680379230364,93.48635080967716
7.89,0.08736234525940105,0.21314561260766512,96.2809850204402
7.9,0.13783277909552707,0.12572484064951256,98.27911414902015
7.91,0.09839040446772183,0.21197735094089426,99.32281046360487
7.92,0.10826895913315575,0.11125828128652002,99.57000169600651
7.93,0.025325021960476046,0.15061875680421538,99.1534386932556
7.94,0.032868645523171036,0.07826110335804475,98.23333799487169
7.95,-0.05298497502369102,0.07768940084026325,97.22397379589832
7.96,-0.023385233044354477,0.03716066365579701,96.23520886629174
7.97,-0.08775748744601841,0.05569128222127973,95.23728870585548
7.98,-0.06110335085782944,-0.024197930480881865,94.40645150806107
7.99,-0.09936029892578262,0.04989968714984114,93.66487781085614
8.0,-0.06282760767215972,0.04179642537606868,92.89126080574728
8.01,-0.1028447345714084,0.06263871064388526,92.2160625320576
8.02,-0.0547092318380213,0.008215116614207967,91.72396887496174
8.03,-0.09357685419438312,0.047588020447507276,91.40811341133742
8.04,-0.05298497502369102,0.012850878334479635,91.20669833308423
8.05,-0.09993505119722604,0.06263871064388526,91.09454675542052
8.06,-0.04429184691810917,0.027317437697472184,90.90457571570444
8.07,-0.07848960706899313,0.04526392542956947,90.51090079002775
8.08,-0.03732297562685761,0.03195319941774385,89.91581078609786
8.09,-0.08369829952894921,0.026161604346305253,88.98426604917687
8.1,-0.03556279679556211,0.05047138966762263,87.80553007985421
8.11,-0.08603323063168813,0.04236812789385017,86.62679411053156
8.12,-0.045441351460996024,0.03658896113801552,85.741025527759
8.13,-0.0930021019229397,0.05684711557244666,85.37023867915653
8.14,-0.06282760767215972,0.011110914149927266,85.4480581412089
8.15,-0.10226998229996496,0.05510715138789429,85.85317710542272
8.16,-0.07037123123485471,0.022109973459419025,86.4803104172565
8.17,-0.10632917021703418,0.06379454399505219,87.24477219153566
8.18,-0.07037123123485471,0.023265806810585956,87.98405708103317
8.19,-0.1162077248824681,0.015162545036813496,88.55854781559626
8.2,-0.06746154786067236,0.03484899695346315,89.06208551122923
8.21,-0.10632917021703418,0.059742913108165964,89.55646797603252
8.22,-0.07270616233759364,-0.0074072760999515114,89.98218620961313
8.23,-0.10575441794559075,0.059158782274780525,90.22937744201477
8.24,-0.06864697442052443,0.020370009274866655,90.21793340347766
8.25,-0.11329804150828575,0.061470448977114386,89.95014290170921
8.26,-0.07270616233759364,0.006487580745259545,89.42142832129458
8.27,-0.10169523002852154,0.06495037734621913,88.80345024029047
8.28,-0.06573729104634207,0.027317437697472184,88.21980427489771
8.29,-0.11559705059405946,0.059742913108165964,87.74830988716865
8.3,-0.07963911161187999,0.016318378387980427,87.3798118462736
8.31,-0.10981360586265997,0.06495037734621913,86.95180480498557
8.32,-0.06458778650345522,0.019214175923699724,86.4688663787194
8.33,-0.11214853696539889,0.05510715138789429,85.90810849040085
8.34,-0.06979647896341129,0.010539211632145775,85.31301848647097
8.35,-0.10112047775707811,0.04179642537606868,84.66299709756295
8.36,-0.07734010252610628,0.007643414096426476,84.14572655568543
8.37,-0.08836816173442706,0.08694849596520264,83.78638374562007
8.38,-0.02629491641853683,0.019214175923699724,83.39499762765081
8.39,-0.03207836114993633,0.0805727700603786,82.96699058636278
8.4,0.06767707996246365,0.09967509114364281,82.59620373776032
8.41,0.08969727636213998,0.07015784158427228,82.31696919745475
8.42,0.12799014644705836,0.060314615625947456,82.18192954271682
8.43,0.07809446488237579,0.07189780576882465,82.0697779650531
8.44,0.06825183223390707,0.028473271048639115,81.7447672705991
8.45,-0.02223572850146762,0.07015784158427228,81.38542446053374
8.46,-0.054134479566577874,-0.0074072760999515114,81.10390111252076
8.47,-0.13474348563651864,-0.001628109344116859,80.9459733807086
8.48,-0.1028447345714084,-0.001628109344116859,80.87959795719334
8.49,-0.13822792128214442,0.03542069947124464,80.80177849514098
8.5,-0.1277746143452671,-0.04678017993325082,80.64385076332881
8.51,-0.15446467295042127,0.02153827094163753,80.33028410741191
8.52,-0.1277746143452671,-0.020146299593995637,79.913721104661
8.53,-0.16721698897307233,0.027901568530857623,79.54293425605853
8.54,-0.3760316735918628,0.11877741222690703,79.33007513926823
8.55,-0.342372743695457,0.20966568423856038,79.28429898511978
8.56,0.5200430396054067,0.023265806810585956,79.29574302365688
8.57,1.3494105672982732,-0.20711787953975155,79.29574302365688
8.58,1.322720508693119,-0.4681995054318345,79.17214740745607
8.59,0.27530633802140203,-0.38251869765823426,78.90435690568762
8.6,-0.06110335085782944,-0.3454698888428727,78.66860971182308
8.61,-0.17188685117855018,-0.20423451031963621,78.44430655649568
8.62,-0.11214853696539889,-0.061830870129628804,78.28637882468351
8.63,-0.16779174124451576,0.03426486612007771,78.20855936263114
8.64,-0.1417123569277702,0.012266747501094197,78.16278320848268
8.65,-0.18230423609846233,0.04121229454268324,78.12845109287134
8.66,-0.14983073276190864,0.008215116614207967,78.00485547667053
8.67,-0.1684024155329244,0.06552207986400062,77.74850901343919
8.68,-0.13125904999089288,0.03021323523319148,77.38916620337383
8.69,-0.15331516840753442,0.06552207986400062,77.08475477828662
8.7,-0.11793198169679839,0.04121229454268324,76.91767181564478
8.71,-0.14577154484483942,0.07305363911999158,76.78263216090684
8.72,-0.11735722942535495,0.026161604346305253,76.6475925061689
8.73,-0.1417123569277702,0.07131367493543922,76.47822073581963
8.74,-0.10226998229996496,0.04179642537606868,76.2424735419551
8.75,-0.1260503575309368,0.08520853178065027,75.99528230955346
8.76,-0.08369829952894921,0.058574651441395086,75.78242319276316
8.77,-0.10808934904832967,0.10257088867936212,75.68171565363656
8.78,-0.05761891521220366,0.03658896113801552,75.89457477042686
8.79,-0.06340235994360315,0.1396196974947236,76.60181635202045
8.8,-0.013542600395885772,0.09910338862586132,78.18567128555691
8.81,-0.02223572850146762,0.1500470542864339,80.80177849514098
8.82,0.0380773379831271,0.11067415045313457,84.24643409481203
8.83,0.047955892648561024,0.17377270877436582,88.05272131225585
8.84,0.09896515673916526,0.13441223325667045,91.75601218286566
8.85,0.10884371140459918,0.19751079157790172,94.97865343491672
8.86,0.16103840205505549,0.16509774448281186,97.43683291268862
8.87,0.15234527394947364,0.2009782916314025,98.97491169207663
8.88,0.19117697428887023,0.14656712591732915,99.71648538928156
8.89,0.14131721474115286,0.15525451852448705,99.80574888987104
8.9,0.13553377000975336,0.11646574552457317,99.3571425792162
8.91,0.04447145700293524,0.1147257813400208,98.58123676639994
8.92,0.03110846669187554,0.0493155563164557,97.76184360714264
8.93,-0.03268903543834497,0.07189780576882465,96.98822660203379
8.94,-0.028019173232867116,0.028473271048639115,96.24665290482885
8.95,-0.07152073577774157,0.059158782274780525,95.59663151592083
8.96,-0.058193667483647085,0.004163485727321739,94.9557653578425
8.97,-0.08082453817173206,0.04005646119151631,94.33778727683838
8.98,-0.05585873638090816,0.014590842519032003,93.86629288910932
8.99,-0.08082453817173206,0.04874385379867421,93.609946425878
9.0,-0.05934317202653394,0.008799247447593406,93.48635080967716
9.01,-0.07676535025466286,0.06610621069738605,93.4176865784545
9.02,-0.05007529164950866,0.006487580745259545,93.28264692371656
9.03,-0.07906435934043657,0.059158782274780525,93.14989607668605
9.04,-0.04835103483517838,0.020370009274866655,92.9027048442844
9.05,-0.06922172669196786,0.059158782274780525,92.47469780299637
9.06,-0.05122479619239552,0.007059283263041037,91.91393991467783
9.07,-0.07270616233759364,0.07536530582232544,91.11743483249475
9.08,-0.04835103483517838,0.03484899695346315,90.20877817264797
9.09,-0.06979647896341129,0.07536530582232544,89.34360885924221
9.1,-0.04892578710662181,0.008799247447593406,88.70274270116388
9.11,-0.0738556668804805,0.06263871064388526,88.35484392963563
9.12,-0.05585873638090816,0.02558990182852376,88.60203516203728
9.13,-0.08775748744601841,0.05163965133439351,89.20856920450429
9.14,-0.06631204331778551,-0.0027839426952837895,89.68006359223334
9.15,-0.09648653756856547,0.06784617488193842,90.0508504408358
9.16,-0.0738556668804805,-0.001628109344116859,90.37586113528982
9.17,-0.10632917021703418,0.03774479448918245,90.71231586828094
9.18,-0.06688679558922893,0.015162545036813496,90.94806306214548
9.19,-0.09763604211145233,0.04526392542956947,91.09454675542052
9.2,-0.07906435934043657,0.0024235215427693703,91.24103044869557
9.21,-0.10808934904832967,0.07015784158427228,91.3966693728003
9.22,-0.07443041915192393,0.045848056262954906,91.38751414197063
9.23,-0.10169523002852154,0.05105552050100807,91.16092217893578
9.24,-0.07500517142336735,0.016902509221365866,90.7580920224294
9.25,-0.10341948684285182,0.060314615625947456,90.34152901967848
9.26,-0.07963911161187999,0.005319319078488669,89.95014290170921
9.27,-0.09763604211145233,0.060314615625947456,89.52213586042117
9.28,-0.08197404271461892,-0.004511478564232212,88.97282201063975
9.29,-0.11214853696539889,0.02384993764397139,88.2999125446575
9.3,-0.08430897381735784,0.011695044983312705,87.73915465633895
9.31,-0.09472635873726998,0.042952258727235605,87.27681549943958
9.32,-0.07328091460903707,0.02269410429280446,86.89687342000742
9.33,-0.10517966567414733,0.042952258727235605,86.43682307081548
9.34,-0.07619059798321942,0.03369316360229622,85.78451287420003
9.35,-0.10460491340270389,0.03369316360229622,85.16653479319592
9.36,-0.08603323063168813,0.0018518190249878779,84.65155305902583
9.37,-0.10341948684285182,0.058002948923613594,84.29221024896047
9.38,-0.08603323063168813,0.009370949965374898,84.1022392092444
9.39,-0.0970612898400089,0.056262984739061224,83.93286743889513
9.4,-0.07619059798321942,0.004163485727321739,83.66278812941925
9.41,-0.10460491340270389,0.05047138966762263,83.27140201145
9.42,-0.0738556668804805,0.0047476165607071765,82.93265847075143
9.43,-0.10460491340270389,0.05105552050100807,82.74268743103536
9.44,-0.07619059798321942,0.018642473405918233,82.5641604298564
9.45,-0.09530111100871341,0.04236812789385017,82.30552515891763
9.46,-0.09415160646582656,0.014590842519032003,81.9576263873894
9.47,-0.10460491340270389,0.04236812789385017,81.69899111645064
9.48,-0.08430897381735784,0.017474211739147358,81.66465900083931
9.49,-0.11559705059405946,0.022109973459419025,81.63261569293539
9.5,-0.08603323063168813,0.03831649700696394,81.41746776843766
9.51,-0.09993505119722604,0.047588020447507276,81.0375256890055
9.52,-0.08369829952894921,-0.001628109344116859,80.67818287894015
9.53,-0.10112047775707811,0.05452302055450886,80.50881110859088
9.54,-0.0970612898400089,0.009370949965374898,80.4195476080014
9.55,-0.10169523002852154,0.04989968714984114,80.3394393382416
9.56,-0.08254879498606235,0.020370009274866655,80.14946829852552
9.57,-0.10054572548563469,0.04179642537606868,79.90227706612389
9.58,-0.043681172629700525,0.047588020447507276,79.75579337284883
9.59,-0.010632917021703417,0.09041599601870343,79.65508583372224
9.6,0.025899774231919474,0.062054579810499826,79.4994469096175
9.61,0.06940133677679393,0.13441223325667045,79.25225567721586
9.62,0.06013345639976866,0.031369068584358416,79.07143986832946
9.63,0.013722210480711844,0.07536530582232544,78.9936204062771
9.64,-0.03268903543834497,0.03195319941774385,78.90435690568762
9.65,-0.08369829952894921,0.05452302055450886,78.75787321241256
9.66,-0.10341948684285182,0.0006959856738209474,78.42141847942145
9.67,-0.1335939810936318,0.027317437697472184,78.08496374643032
9.68,-0.11965623851112867,-0.014354704522557039,77.91559197608105
9.69,-0.13822792128214442,0.012850878334479635,77.89270389900682
9.7,-0.12256592188531103,-0.030561228070101955,77.84921655256579
9.71,-0.14404728803050915,0.019798306757085164,77.59058128162702
9.72,-0.2112933037893902,0.0012676881916024397,77.25412654863591
9.73,-0.3899334941574007,0.2061981841850596,77.00693531623426
9.74,0.04504620927437867,0.11241411463768694,76.80552023798107
9.75,1.024603689898806,-0.11681373836148365,76.61326039055757
9.76,1.6666378991180804,-0.4270990657295867,76.37751319669303
9.77,0.6737174281825933,-0.36979210247979405,76.1417660028285
9.78,-0.03674822335541418,-0.3402624246048196,76.07539057931325
9.79,-0.12838528863367574,-0.2974220207180195,76.06394654077614
9.8,-0.10341948684285182,-0.11565790501031671,75.94035092457531
9.81,-0.13880267355358786,0.016318378387980427,75.64738353802522
9.82,-0.13125904999089288,-0.00393977604645072,75.33381688210832
9.83,-0.16200829651311627,0.020370009274866655,75.14384584239224
9.84,-0.15388992067897786,0.014590842519032003,75.0088061876543
9.85,-0.16200829651311627,0.061470448977114386,74.85087845584215
9.86,-0.1393774258250313,0.003591783209540246,74.54875583846236
9.87,-0.15155498957623892,0.07131367493543922,74.21230110547123
9.88,-0.13068429771944945,0.03310903276891078,74.04292933512195
9.89,-0.13998810011343993,0.0666903415307715,73.9651098730696
9.9,-0.1318338022623363,0.026161604346305253,73.80718214125743
9.91,-0.13301922882218836,0.057418818090228155,73.41350721558074
9.92,-0.12719986207382367,0.043523961245017104,73.07705248258961
9.93,-0.12838528863367574,0.07420947247115851,72.94201282785167
9.94,-0.10923885359121653,0.026161604346305253,72.86419336579931
9.95,-0.10866410131977311,0.0857926626140357,72.81841721165085
9.96,-0.08082453817173206,0.03369316360229622,72.85274932726219
9.97,-0.07094598350629815,0.11704987635795862,73.38146390767682
9.98,-0.044866599189552596,0.06726204404855299,74.88521057145348
9.99,-0.03092885660704947,0.11646574552457317,77.75766424426888
