time_s,ECG1,ECG2,NIBP
0.0,-0.3035038570494867,0.07536149145721024,102.54412222909298
0.01,-0.30063282147029624,0.06899896222334011,109.79640932314348
0.02,-0.27160783164231633,0.09563310811645293,115.48793222874636
0.03,-0.20376486761350143,0.15640892417250074,119.2031255116769
0.04,-0.17709963305608897,0.1697194914654438,121.27999515875844
0.05,-0.16431762534051514,0.16219895588839484,122.0661223972342
0.06,-0.09010332208116807,0.20793370079034476,121.97611513728691
0.07,-0.07445027878640383,0.1853590827519712,121.40351576017545
0.08,-0.09761520969247453,0.14541436956591536,120.66239215167333
0.09,-0.13647251314781894,0.09736361197760778,120.24682671744863
0.1,-0.1735993294047472,0.06842646470536407,120.25831700595253
0.11,-0.22637918895643971,0.01574368174434123,120.40386066033538
0.12,-0.2710572220791839,-0.013206476835129212,120.51684849729048
0.13,-0.2919410562237061,-0.03287957336194238,120.56185212726413
0.14,-0.2919410562237061,-0.03693910121668161,120.53887155025632
0.15,-0.30468373468477045,-0.03346508218714516,120.59536546873386
0.16,-0.2971325178189545,-0.03982761142101529,120.56185212726413
0.17,-0.28785081375472243,-0.029405554332405933,120.29183034742226
0.18,-0.2954020306205384,-0.043874127968527785,119.82072851876201
0.19,-0.3052736735024123,-0.061244223116210056,119.28164248312028
0.2,-0.2855303877386644,-0.05024966850962465,118.7990503659561
0.21,-0.30468373468477045,-0.06819226117528296,118.13644372889736
0.22,-0.2710572220791839,-0.0340375797051212,117.28328980748212
0.23,-0.2629160663957261,-0.0427291329325757,116.27310194318014
0.24,-0.2774285613097161,-0.04850615334124306,114.97086924607045
0.25,-0.2554041787844197,-0.03519558604830002,113.21955777326635
0.26,-0.2292895537901396,0.00995365002844714,110.8401105289152
0.27,-0.2594550919988938,-0.027089541646048296,108.09010148031301
0.28,-0.27856910969049037,-0.047933655823267016,105.4291421676161
0.29,-0.23916119667201355,-0.019569006068999344,103.26322278462928
0.3,-0.24726302310096188,-0.02651704412807225,101.79246585612894
0.31,-0.25017338793466176,-0.017825490900617753,100.96133498767954
0.32,-0.23219991862383949,-0.013206476835129212,100.63577681340212
0.33,-0.26232612757808427,-0.01725299338264171,100.5352367889929
0.34,-0.24612247472018758,-0.004514923607674716,100.49023315901927
0.35,-0.2554041787844197,-0.017825490900617753,100.54672707749681
0.36,-0.2188279720906238,0.00995365002844714,100.55725984195874
0.37,-0.22637918895643971,-0.013778974353105258,100.45671981754953
0.38,-0.1956630411845531,0.0047491271377558255,100.24319195618523
0.39,-0.18461152066739542,-0.0033569172644958983,99.92912407041172
0.4,-0.11908898265463855,0.0313702617236419,99.59207560763039
0.41,-0.08023167919929414,0.07131497490969775,99.1880004619096
0.42,-0.1289606255365125,0.024422223664568997,98.62689137330204
0.43,-0.143433791195993,0.03716029343953599,97.97577502474721
0.44,-0.14402373001363486,0.007637637342089505,97.32465867619237
0.45,-0.19739352838296925,-0.001040904578138263,96.76354958758482
0.46,-0.22346882412273983,-0.016094987039462893,96.2474441289509
0.47,-0.2675569184278422,-0.04850615334124306,95.70835809330917
0.48,-0.27569807411129993,-0.03982761142101529,95.15778176916355
0.49,-0.25363436233149406,-0.01898349724379657,94.6081629690599
0.5,-0.26814685724548404,-0.046775649480088194,94.09205751042599
0.51,-0.23452034463989752,-0.0033569172644958983,93.61999815772374
0.52,-0.25481423996677777,-0.03287957336194238,93.14889632906348
0.53,-0.2913511174060642,-0.08613485384094127,92.69981755336903
0.54,-0.2629160663957261,-0.0027844197465198535,92.29574240764823
0.55,-0.28320996172260643,0.024422223664568997,91.948161180405
0.56,0.05722406531126126,0.13556480999528203,91.56610908765002
0.57,0.51946079356092,0.4614720334103722,91.17352423043313
0.58,0.9057134020983062,0.22876480366033677,90.76944908471233
0.59,0.5525366966033741,-0.1434496621746794,90.44389091043492
0.6,0.12333654214166,-0.18686839439027167,90.17386913059306
0.61,-0.16722799017421502,-0.14692368120421584,89.87129153332346
0.62,-0.23857125785437167,-0.06356023580256769,89.55626612350795
0.63,-0.22173833692432368,-0.013206476835129212,89.1866618432989
0.64,-0.2379813190367298,-0.013778974353105258,88.78258669757808
0.65,-0.24899351029937802,-0.01725299338264171,88.38904431631921
0.66,-0.25363436233149406,-0.02188501875535698,87.98496917059842
0.67,-0.2542243011491359,-0.007988942637211168,87.659410996321
0.68,-0.2646465535941423,-0.01262096800992644,87.37885645201722
0.69,-0.2646465535941423,-0.029991063157608706,87.15479582619099
0.7,-0.23916119667201355,0.0024331144513981898,86.96329101779251
0.71,-0.244352658267262,0.0030056119693742346,86.69422676199265
0.72,-0.2379813190367298,-0.003942426089698671,86.38015887621914
0.73,-0.2379813190367298,0.0053216246557318695,86.06513346640364
0.74,-0.21363651049537535,0.01747418560549609,85.80755949910768
0.75,-0.20376486761350143,0.028481751519308224,85.67254860918675
0.76,-0.18115054627056312,0.03427178323520231,85.95310315349052
0.77,-0.16490756415815702,0.06958447104854289,87.26682613910411
0.78,-0.16608744179344076,0.06899896222334011,90.70146487773087
0.79,-0.1538953728955088,0.08346753585946197,96.92058353047156
0.8,-0.15039506924416704,0.07015696856651893,104.58747853470479
0.81,-0.1173584954562224,0.11704971981164768,111.5477207959476
0.82,-0.08255210521535215,0.14946088611342784,116.70015766590875
0.83,-0.031502732862075784,0.18883310178150764,119.9107357787093
0.84,0.007354570593268629,0.21777024905375136,121.63906667450559
0.85,0.03693016998438098,0.2310808163466944,122.14463936867757
0.86,0.07228716978838363,0.23166632517189717,121.88610787733963
0.87,0.07869783827342527,0.220086261740109,121.27999515875844
0.88,0.08971002953607349,0.19866965004491424,120.56185212726413
0.89,0.05549357811284511,0.1616264583704188,120.20182308747498
0.9,-0.017029567202595276,0.08115152317310434,120.17980003450916
0.91,-0.04892559260976564,0.07305849007807934,120.325343688892
0.92,-0.11098715622569022,0.016316179262317272,120.51684849729048
0.93,-0.14402373001363486,-0.005672929950853534,120.6173885216997
0.94,-0.12199934748833843,0.02326421732139018,120.65090186316942
0.95,-0.1318316611157029,0.014013177883186366,120.65090186316942
0.96,-0.15853622492762484,-0.020727012412178163,120.57238489172605
0.97,-0.1730487198416148,-0.02651704412807225,120.2248036644828
0.98,-0.1538953728955088,-0.01841099972582053,119.7192309703108
0.99,-0.143433791195993,-0.0033569172644958983,119.25961943015446
1.0,-0.14807464322810904,-0.01841099972582053,118.75404673598246
1.01,-0.15039506924416704,-0.007988942637211168,118.03590370448815
1.02,-0.15330543407786693,-0.028833056814429887,117.0707194701598
1.03,-0.16549750297579888,-0.031721567018763566,115.86902679745934
1.04,-0.16431762534051514,-0.04561764313690938,114.34273347452344
1.05,-0.13938287798151883,-0.010304955323568805,112.44587834733647
1.06,-0.16376701577738273,-0.028247547989227115,109.94195297752633
1.07,-0.16317707695974087,-0.020727012412178163,107.07991361601103
1.08,-0.1486645820457509,0.004163618312553052,104.47544822179167
1.09,-0.14402373001363486,0.004163618312553052,102.41006886321405
1.1,-0.12955056435415435,0.014585675401162412,100.97282527618344
1.11,-0.15157494687945078,0.0035911207945770077,100.2211689032194
1.12,-0.1991240155813854,-0.05024966850962465,99.94061435891562
1.13,-0.17532981660316335,-0.01725299338264171,99.99615075335119
1.14,-0.17709963305608897,-0.014351471871081302,100.19818832621158
1.15,-0.17883012025450512,-0.01262096800992644,100.26617253319304
1.16,-0.1573563472923411,0.0024331144513981898,100.14265193177602
1.17,-0.14807464322810904,0.0006895992830165992,99.94061435891562
1.18,-0.15157494687945078,-0.01841099972582053,99.72708649755131
1.19,-0.1173584954562224,0.0024331144513981898,99.46855500621336
1.2,-0.07268046233347822,0.02326421732139018,99.06447986049257
1.21,-0.04255425337923346,0.03774580226473877,98.50337077188502
1.22,-0.010068289154421225,0.08868507005738001,97.91928110626965
1.23,-0.12546032188517073,0.0024331144513981898,97.34763925320019
1.24,-0.09415423529564224,0.0053216246557318695,96.78557264055064
1.25,-0.15271549526022507,-0.007416445119235124,96.14594658049971
1.26,-0.21131608447931735,-0.03635359239147884,95.43929383750931
1.27,-0.2408916838704297,-0.031721567018763566,94.85520417189394
1.28,-0.23393040582225563,-0.024201031441714618,94.36112176622586
1.29,-0.26409594403100983,-0.04561764313690938,93.83352601908804
1.3,-0.25308375276836165,-0.05545419140031597,93.2839072189844
1.31,-0.24667308428332,-0.029991063157608706,92.77833452481241
1.32,-0.2542243011491359,-0.044459636793730564,92.3627690905877
1.33,-0.2692874056262583,-0.043874127968527785,91.97018423337082
1.34,-0.24726302310096188,-0.019569006068999344,91.47610182770273
1.35,-0.2971325178189545,0.03716029343953599,91.06053639347803
1.36,0.038660657182797126,0.14367085439753377,90.71295516623478
1.37,0.502627872630872,0.42906086710859204,90.38739699195736
1.38,0.9387893051407603,0.2744995485622867,90.05034852917603
1.39,0.5646894362467967,-0.1278230821953787,89.63574061899332
1.4,0.10477313401319586,-0.23085962412384,89.25368852623835
1.41,-0.16317707695974087,-0.13360010260404606,88.92813035196093
1.42,-0.282659352159474,-0.1081369743613388,88.5910818891796
1.43,-0.27046728326154207,-0.061244223116210056,88.23201037343246
1.44,-0.263506005213368,-0.04330163045055174,87.84995828067748
1.45,-0.27974898732577413,-0.029405554332405933,87.50237705343424
1.46,-0.28147947452419025,-0.040985617764194106,87.26682613910411
1.47,-0.28671026537394817,-0.04330163045055174,86.9527582533306
1.48,-0.2669669796102003,-0.017825490900617753,86.60421950204537
1.49,-0.2710572220791839,-0.014936980696284075,86.2451479862982
1.5,-0.27974898732577413,-0.02767505047125107,85.9425703890286
1.51,-0.33425933407588276,-0.07050827386164059,85.7175522391604
1.52,-0.28320996172260643,-0.04214362410737293,85.44848798336052
1.53,-0.29017123977078046,-0.03635359239147884,85.09994923207529
1.54,-0.2791590485081322,-0.030563560675584748,84.77439105779787
1.55,-0.27801850012735796,-0.02188501875535698,84.53884014346774
1.56,-0.26814685724548404,-0.017825490900617753,84.6958740863545
1.57,-0.26118557919730995,-0.006258438776056307,85.57200858477755
1.58,-0.24553253590254573,0.018059694430698863,88.0634861420418
1.59,-0.2379813190367298,0.027323745176129406,93.27241693048049
1.6,-0.21595693651143338,0.030212255380463085,100.8272816218006
1.61,-0.19448316354926937,0.05800440761675471,108.50566691453771
1.62,-0.13415208713176094,0.12457025538869664,114.6117977303233
1.63,-0.14056275561680256,0.10951617292737201,118.52998611015624
1.64,-0.08141155683457788,0.1708774978086226,120.65090186316942
1.65,-0.07964174038165227,0.16104094954521603,121.47054244311492
1.66,-0.0390539497278917,0.14019683536799732,121.29148544726235
1.67,0.002123779743510727,0.17725303834971948,120.55036183876022
1.68,-0.008888411519137487,0.11936573249800532,119.59571036889379
1.69,-0.08141155683457788,0.04699684170294258,118.92257096737312
1.7,-0.0947441741132841,0.03600228709635717,118.69755281750491
1.71,-0.1596767733083991,-0.005100432432877489,118.82107341892193
1.72,-0.2095855972809012,-0.05256568119598228,118.92257096737312
1.73,-0.22000784972590753,-0.05603970022551874,118.9005479144073
1.74,-0.24726302310096188,-0.08613485384094127,118.82107341892193
1.75,-0.23971180623514596,-0.060086216773031234,118.7875600774522
1.76,-0.24899351029937802,-0.0971424197547534,118.75404673598246
1.77,-0.24612247472018758,-0.08729286018412008,118.55200916312207
1.78,-0.22464870175802357,-0.07861431826389231,118.15942430590518
1.79,-0.23507095420302992,-0.081502828468226,117.57533464028981
1.8,-0.2408916838704297,-0.0953989045863718,116.90219523876914
1.81,-0.22810967615485586,-0.08613485384094127,116.14958134176311
1.82,-0.24262217106884584,-0.10697896801815998,115.22940073740841
1.83,-0.22173833692432368,-0.08208833729342876,114.05068864171575
1.84,-0.21941791090826568,-0.09076687921365655,112.52439531877985
1.85,-0.21595693651143338,-0.07687080309551073,110.40252204172468
1.86,-0.22232827574196556,-0.08903637535250168,107.78656635900141
1.87,-0.2101362068440336,-0.0745547904091531,105.04804759890312
1.88,-0.18984231151715333,-0.06182973194141283,102.52209917612716
1.89,-0.21422644931301724,-0.06703425483210414,100.59173070747046
1.9,-0.21245663286009162,-0.07282428654799823,99.36801498180417
1.91,-0.18638133712032104,-0.044459636793730564,98.72838892175324
1.92,-0.21245663286009162,-0.07109378268684337,98.63838166180595
1.93,-0.2188279720906238,-0.06530375097094927,98.87393257613608
1.94,-0.1991240155813854,-0.07166628020481941,99.13246406747403
1.95,-0.23219991862383949,-0.08034482212504718,99.24449438038714
1.96,-0.20608529362955944,-0.07629830557753468,99.14299683193595
1.97,-0.16490756415815702,-0.04330163045055174,98.84041923466634
1.98,-0.1486645820457509,-0.04214362410737293,98.50337077188502
1.99,-0.14111336517993497,-0.04966415968442188,98.14429925613787
2.0,-0.07909113081851986,-0.02361552261651184,97.7622471633829
2.01,-0.06689906192058791,-0.004514923607674716,97.26816475771481
2.02,-0.08196216639771028,-0.04330163045055174,96.69652290464535
2.03,-0.10111551334381629,-0.029991063157608706,96.1344562919958
2.04,-0.07327040115112009,-0.0340375797051212,95.53983386191851
2.05,-0.17245878102397294,-0.05951371925505519,95.0007478262768
2.06,-0.1730487198416148,-0.05892821042985242,94.47315207913897
2.07,-0.1852014594850373,-0.047933655823267016,93.90055270202751
2.08,-0.1956630411845531,-0.06587624848892533,93.31742056045414
2.09,-0.23684077065595552,-0.08034482212504718,92.74482118334268
2.1,-0.21363651049537535,-0.06471824214574651,92.13870846476148
2.11,-0.20608529362955944,-0.046775649480088194,91.6561163475973
2.12,-0.22059778854354942,-0.07109378268684337,91.2290606248687
2.13,-0.22637918895643971,-0.10061643878428986,90.81349519064399
2.14,-0.24553253590254573,-0.057197706568697555,90.45442367489683
2.15,-0.22578925013879786,0.011111656371625958,90.05034852917603
2.16,0.11637526409348595,0.11936573249800532,89.7027673019328
2.17,0.6209695994498309,0.4296333646265681,89.38869941615928
2.18,0.993299651890869,0.2044596817608083,89.04016066487405
2.19,0.6168793569808473,-0.15618773194964639,88.77109640907418
2.2,0.11000392486295377,-0.20365298071275117,88.4790515762665
2.21,-0.11676855663858053,-0.14923969389057345,88.14200311348517
2.22,-0.20376486761350143,-0.07687080309551073,87.78293159773801
2.23,-0.14807464322810904,-0.03114906950078752,87.39034674052112
2.24,-0.2043548064311433,-0.06298773828459164,87.0532982777398
2.25,-0.181740485088205,-0.03519558604830002,86.77274373343603
2.26,-0.17245878102397294,-0.0577702040866736,86.43569527065469
2.27,-0.19680358956532737,-0.05488169388233992,86.1216273848812
2.28,-0.17245878102397294,-0.04734814699806424,85.79606921060376
2.29,-0.1741892682223891,-0.02361552261651184,85.50402437779609
2.3,-0.13592190358468653,-0.01898349724379657,85.27996375196986
2.31,-0.18638133712032104,-0.05198017237077951,84.94291528918853
2.32,-0.14693409484733475,-0.0340375797051212,84.60586682640721
2.33,-0.160266712126041,-0.03230707584396634,84.34829285911124
2.34,-0.11562800825780625,-0.01841099972582053,84.06773831480747
2.35,-0.15157494687945078,-0.04909166216644583,83.876233506409
2.36,-0.10402587817751617,0.0035911207945770077,83.97773105486019
2.37,-0.07094997513506207,0.028481751519308224,84.93142500068463
2.38,-0.07850119200087799,0.008223146167292278,87.71590491479854
2.39,-0.04310486294236587,0.05162886707565785,93.16038661756738
2.4,-0.02863169728288536,0.0510563695576818,100.81579133329669
2.41,-0.02222102879784372,0.07247298125287656,108.32565239464314
2.42,0.05085272608072908,0.12052373884118413,114.33124318601953
2.43,0.07578747343972539,0.1459868670838914,118.27145461881828
2.44,0.10768349884689575,0.15120440128180943,120.31481092443009
2.45,0.125656968157718,0.17493702566336183,121.05497700889022
2.46,0.17261609804201075,0.16798898760428893,120.8424066715679
2.47,0.16451427161306242,0.14482886074071258,120.08979277456187
2.48,0.18539810575758459,0.1297877895866147,119.14663159319934
2.49,0.1598734195809464,0.12225424270233899,118.4849824801826
2.5,0.07692802182049967,0.019790198291853727,118.30496796028802
2.51,0.04330150921491316,0.007637637342089505,118.46200190317478
2.52,0.005034144577210613,-0.02188501875535698,118.65350671157326
2.53,-0.022810967615485588,-0.03635359239147884,118.72053339451273
2.54,-0.024541454813901735,-0.040985617764194106,118.67552976453908
2.55,-0.04660516659370762,-0.06530375097094927,118.56349945162597
2.56,-0.03209267167971765,-0.04850615334124306,118.3834849317314
2.57,-0.03559297533105941,-0.04909166216644583,118.11442067593153
2.58,-0.00019664627254728953,-0.05140767485280347,117.72183581871465
2.59,-0.017029567202595276,-0.07282428654799823,117.24977646601239
2.6,-0.019900602781785702,-0.09135238803885931,116.64366374743119
2.61,-0.02745181964760162,-0.08093033095024996,115.82402316748569
2.62,0.024148162268807158,-0.06298773828459164,114.82532559168762
2.63,-0.004837498304663323,-0.07166628020481941,113.55660623604767
2.64,0.007354570593268629,-0.09251039438203813,111.88381173468693
2.65,0.04157102201649701,-0.0340375797051212,109.78491903463957
2.66,0.022417675070391007,-0.07166628020481941,107.27046090036751
2.67,0.031699379134623076,-0.05661219774349478,104.57598824620088
2.68,0.06359540454179344,-0.037511598734657654,102.19654100184974
2.69,0.039250596000438995,-0.0427291329325757,100.4232064760798
2.7,0.05431370047756137,-0.0340375797051212,99.36801498180417
2.71,0.002123779743510727,-0.09076687921365655,98.91893620610972
2.72,0.02705852710250704,-0.07050827386164059,98.90744591760581
2.73,0.015456397022216958,-0.07166628020481941,99.15448712043985
2.74,0.03575029234909724,-0.05951371925505519,99.4015283232739
2.75,0.032289317952264945,-0.061244223116210056,99.5020683476831
2.76,0.07055668258996749,-0.03230707584396634,99.4015283232739
2.77,0.07924844783655768,-0.03693910121668161,99.21098103891741
2.78,0.0781078994557834,-0.06530375097094927,98.95244954757946
2.79,0.0920304555521315,-0.061244223116210056,98.57039745482449
2.8,0.13607922060272437,-0.040413120246218064,98.13280896763396
2.81,0.22075510556158726,0.02384972614659295,97.6617071389737
2.82,0.18189780210624282,-0.01550947821426012,97.07761747335832
2.83,0.12392648095930187,-0.0427291329325757,96.42650112480348
2.84,0.16337372323228816,-0.030563560675584748,95.82038840622229
2.85,0.12683684579300175,-0.01666748455743894,95.29279265908447
2.86,0.08274875148789944,-0.047933655823267016,94.73168357047692
2.87,0.04212163157962942,-0.05198017237077951,94.18206477037327
2.88,0.04389144803255503,-0.06182973194141283,93.68798236470519
2.89,0.011405483807742794,-0.08787836900932286,93.1709193820293
2.9,0.038660657182797126,-0.06182973194141283,92.64332363489147
2.91,0.002123779743510727,-0.09655691092955063,92.15019875326539
2.92,0.030558830753848795,-0.0774563119207135,91.70111997757095
2.93,0.018956700673558712,-0.08613485384094127,91.25204120187651
2.94,0.051993274461503355,-0.061244223116210056,90.80296242618208
2.95,-0.005978046685437602,0.03252826806682072,90.45442367489683
2.96,0.1708856108435946,-0.010304955323568805,90.15184607762723
2.97,0.6354427651093114,0.2930276500531478,89.803307326342
2.98,1.1458185008785466,0.3358608734435373,89.45572609909875
2.99,1.0547712766891517,0.03542978957838113,89.14165821332524
3.0,0.5989058876700251,-0.2227535797215883,88.86110366902146
3.01,0.205102062266823,-0.17992035633119877,88.60257217768351
3.02,0.08388929986867372,-0.14229165583150055,88.31052734487584
3.03,0.07924844783655768,-0.07223877772279545,87.96294611763258
3.04,0.09840179478266368,-0.05256568119598228,87.62589765485126
3.05,0.06186491734337729,-0.07514029923435586,87.26682613910411
3.06,0.08215881267025757,-0.05256568119598228,86.97478130629642
3.07,0.06709570819313519,-0.07050827386164059,86.69422676199265
3.08,0.08274875148789944,-0.053723687539161104,86.39069164068106
3.09,0.10827343766453762,-0.012048470491950396,86.16663101485483
3.1,0.06477528217707718,-0.0953989045863718,85.91958981202079
3.11,0.07983838665419955,-0.05892821042985242,85.65052555622093
3.12,0.11637526409348595,-0.03809710755986043,85.38050377637906
3.13,0.104183195195554,-0.04214362410737293,85.04441283763973
3.14,0.1395795242540661,-0.02477352895969066,84.72938742782422
3.15,0.1407200726348404,-0.006258438776056307,84.56182072047555
3.16,0.15291214153277236,-0.025931535302869478,84.66236074488475
3.17,0.1535020803504142,0.006479630998910688,85.42550740635271
3.18,0.17725695007412678,0.0012751081082193723,87.70441462629464
3.19,0.18421822812230085,0.025580230007747815,92.35223632612579
3.2,0.22716577404662888,0.06495244567582761,99.54707197765674
3.21,0.23062674844346118,0.06726845836218524,107.30397424183724
3.22,0.2799456335983214,0.10258114617552583,113.64661349599496
3.23,0.320533424252082,0.16335696223157367,117.99090007451451
3.24,0.3355965287292043,0.14946088611342784,120.41535094883929
3.25,0.3721334061684907,0.1853590827519712,121.40351576017545
3.26,0.42668308217310885,0.1975116437017354,121.4485193901491
3.27,0.45043795189682145,0.19172161198584134,120.96592727298493
3.28,0.4382458829988895,0.12457025538869664,120.17980003450916
3.29,0.40520930921094483,0.10720016024101436,119.55070673892014
3.3,0.40867028360777713,0.09388959294807132,119.34866916605975
3.31,0.3309556766970883,0.046424344184966534,119.5066606329885
3.32,0.3077514165365081,0.0024331144513981898,119.68571762884108
3.33,0.23353711327716106,-0.04850615334124306,119.79774794175418
3.34,0.2555614958024575,-0.03519558604830002,119.84275157172783
3.35,0.27585539112933777,-0.001626413403341036,119.77572488878836
3.36,0.2521005214056252,-0.045032134311706606,119.58517760443188
3.37,0.19176944498811677,-0.0953989045863718,119.28164248312028
3.38,0.25092064377034146,-0.0664617573141281,118.87756733739948
3.39,0.25092064377034146,-0.04330163045055174,118.41699827320113
3.4,0.245729182175093,-0.08787836900932286,117.91238310307114
3.41,0.2468697305558673,-0.06703425483210414,117.28328980748212
3.42,0.28167612079673754,-0.04561764313690938,116.56514677598781
3.43,0.2619328350329897,-0.07282428654799823,115.61145283016337
3.44,0.2828166691775118,-0.057197706568697555,114.25272621457616
3.45,0.28745752120962786,-0.03230707584396634,112.48992445326813
3.46,0.29500873807544375,-0.04850615334124306,110.24548809883792
3.47,0.2747148427485635,-0.05951371925505519,107.59601907464493
3.48,0.28745752120962786,-0.06240222945938887,104.92452699748611
3.49,0.29327825087702764,-0.04734814699806424,102.64561977754418
3.5,0.2822660596143794,-0.06530375097094927,100.98431556468735
3.51,0.2613822254698573,-0.07050827386164059,100.04115438332482
3.52,0.2863169728288536,-0.05835571291187637,99.72708649755131
3.53,0.2834066079951537,-0.05024966850962465,99.7041059205435
3.54,0.29036788604332775,-0.03809710755986043,99.76059983902105
3.55,0.28745752120962786,-0.03693910121668161,99.82762652196052
3.56,0.2880474600272697,-0.060086216773031234,99.80560346899469
3.57,0.3031105645043921,-0.029405554332405933,99.68208286757768
3.58,0.3222639114504981,-0.050822166027600695,99.46855500621336
3.59,0.30952123298943374,-0.05488169388233992,99.23300409188323
3.6,0.3501090236431943,-0.06471824214574651,98.93042649461363
3.61,0.3918766919322386,-0.010890464148771577,98.46985743041529
3.62,0.45507880392893746,0.015171184226365184,97.86374471183409
3.63,0.4028888831948868,-0.005672929950853534,97.246141704749
3.64,0.43305442140364103,0.03484428075317836,96.68503261614144
3.65,0.37968462303430667,-0.01725299338264171,96.15743686900362
3.66,0.35821085007214265,-0.047933655823267016,95.59632778039607
3.67,0.3072008069733757,-0.040985617764194106,94.95574419630314
3.68,0.29673922527385993,-0.0577702040866736,94.34963147772196
3.69,0.25037003420720905,-0.07166628020481941,93.82203573058413
3.7,0.25092064377034146,-0.0884508665272989,93.26092664197658
3.71,0.2544209474216832,-0.06356023580256769,92.75631147184659
3.72,0.2764453299469796,-0.06182973194141283,92.2622290661785
3.73,0.2381779653092771,-0.07339678406597427,91.76814666051042
3.74,0.27298435555014733,-0.07223877772279545,91.37556180329354
3.75,0.2799456335983214,-0.029991063157608706,91.09500725898975
3.76,0.2497800953895672,0.04179231881225126,90.7244454547387
3.77,0.4481175258807634,0.028481751519308224,90.37590670345345
3.78,0.9706853305479306,0.40242672121547923,90.06183881767994
3.79,1.379552260428255,0.2779735675918231,89.7142575904367
3.8,1.1284349703853662,-0.10291944016342076,89.37720912765538
3.81,0.7224390760842323,-0.23953816604406777,89.02867037637014
3.82,0.4423361254678731,-0.1208750441363058,88.70311220209273
3.83,0.28513709519356983,-0.0953989045863718,88.43404794629285
3.84,0.2961886157107275,-0.07977232460707114,88.09699948351152
3.85,0.27298435555014733,-0.0577702040866736,87.70441462629464
3.86,0.28049624316145383,-0.05140767485280347,87.37885645201722
3.87,0.2526904602232671,-0.07687080309551073,87.04180798923589
3.88,0.2996495901075598,-0.02361552261651184,86.69422676199265
3.89,0.2619328350329897,-0.03925511390303925,86.42516250619278
3.9,0.28513709519356983,-0.05198017237077951,86.15514072635092
3.91,0.2584718606361574,-0.04214362410737293,85.91958981202079
3.92,0.28049624316145383,-0.03578109487350279,85.65052555622093
3.93,0.3007901384883341,-0.004514923607674716,85.33550014640542
3.94,0.32112336306972383,-0.010304955323568805,85.06643589060555
3.95,0.27353496511327974,-0.04850615334124306,84.94291528918853
3.96,0.30488038095731773,-0.03693910121668161,84.84237526477933
3.97,0.30370050332203397,-0.01550947821426012,84.96589586619635
3.98,0.35069896246083615,0.016901688087520045,85.9425703890286
3.99,0.33736634518212993,0.012269662714804775,88.8831267219873
4.0,0.37445383218454875,0.04469384032381167,94.64167631052963
4.01,0.3779541358358905,0.055688394930397074,102.18505071334583
4.02,0.4510278907144633,0.11704971981164768,109.48234143736997
4.03,0.4573992299449955,0.134992312477306,115.10588013599138
4.04,0.512499515512746,0.1650874660927285,118.66403947603517
4.05,0.5182809159256363,0.1824575612404108,120.64036909870751
4.06,0.5542671838017903,0.18420107640879238,121.22350124028088
4.07,0.5786119923431448,0.19924214756289027,120.93145640747319
4.08,0.6186491734337729,0.1905636056426625,120.40386066033538
4.09,0.5913940000587186,0.1558364266545247,119.7192309703108
4.1,0.5745610791286706,0.09563310811645293,119.36015945456366
4.11,0.5072687246629881,0.06436693685062485,119.36015945456366
4.12,0.48174403848634995,0.03195577054884467,119.52868368595432
4.13,0.4197218041249348,-0.006258438776056307,119.68571762884108
4.14,0.39419711794829665,-0.029405554332405933,119.79774794175418
4.15,0.3553398144929522,-0.045032134311706606,119.75274431178055
4.16,0.37445383218454875,-0.03230707584396634,119.6186909459016
4.17,0.3471986588094944,-0.06356023580256769,119.42814366154512
4.18,0.3686724317716584,-0.03578109487350279,119.1025854872677
4.19,0.3767742582006068,-0.017825490900617753,118.70904310600882
4.2,0.36808249295401657,-0.06182973194141283,118.22645098884465
4.21,0.3361864675468462,-0.07802880943868955,117.6653419002371
4.22,0.3663520057556004,-0.0664617573141281,116.94719886874279
4.23,0.37390322262141634,-0.04909166216644583,116.0260607403461
4.24,0.34951908482555244,-0.081502828468226,114.98235953457437
4.25,0.3588007888897845,-0.04909166216644583,113.55660623604767
4.26,0.37445383218454875,-0.05892821042985242,111.63677053185289
4.27,0.3535699980400266,-0.06067172559823401,109.29083662897149
4.28,0.38778644946325497,-0.037511598734657654,106.59732149884685
4.29,0.35939072770742636,-0.045032134311706606,104.03785973460114
4.3,0.39419711794829665,-0.020727012412178163,101.89396340458013
4.31,0.34951908482555244,-0.04909166216644583,100.26617253319304
4.32,0.3669419445732423,-0.05313817871395833,99.35652469330026
4.33,0.3350459191660719,-0.05198017237077951,98.55986469036257
4.34,0.3617111537234844,-0.040985617764194106,98.08780533766031
4.35,0.3350459191660719,-0.05603970022551874,98.0772725731984
4.36,0.3564803628737265,-0.044459636793730564,98.30133319902463
4.37,0.32167397263285624,-0.04619014065488542,98.49188048338111
4.38,0.3530193884768942,-0.04214362410737293,98.44687685340746
4.39,0.37968462303430667,-0.020727012412178163,98.21132593907734
4.4,0.3535699980400266,-0.06471824214574651,97.83023137036436
4.41,0.3849154138840646,-0.019569006068999344,97.41466593613966
4.42,0.4312846049507154,-0.028247547989227115,96.92058353047156
4.43,0.4660909951915857,-0.006258438776056307,96.35947444186402
4.44,0.47305227323975974,0.02384972614659295,95.7198483818131
4.45,0.4428867350310055,0.02963975786248704,95.16927205766746
4.46,0.4341949697844153,-0.007416445119235124,94.51815570911262
4.47,0.3535699980400266,-0.028247547989227115,93.9905599619748
4.48,0.3176230594183821,-0.05545419140031597,93.50796784481062
4.49,0.2857270340112117,-0.05603970022551874,93.01388543914254
4.5,0.3025599549412597,-0.04850615334124306,92.45277635053499
4.51,0.22830632242740317,-0.08729286018412008,91.85815392045771
4.52,0.27007399071644744,-0.06935026751846178,91.33055817331989
4.53,0.25961240901693167,-0.05024966850962465,90.90350245059128
4.54,0.2822660596143794,-0.03346508218714516,90.51091759337439
4.55,0.2776252075822634,-0.025931535302869478,90.09535215914968
4.56,0.24860021775428345,-0.06240222945938887,89.63574061899332
4.57,0.19176944498811677,-0.002198910921317081,89.1866618432989
4.58,0.5142300027111621,0.10720016024101436,88.86110366902146
4.59,1.0043118431535172,0.4533790003153472,88.55756854770988
4.6,1.4526260153068278,0.26697901298523774,88.22052008492855
4.61,1.0826163888818479,-0.12319105682266343,87.86144856918139
4.62,0.6464549563719596,-0.1990209553400359,87.50237705343424
4.63,0.34605811042872014,-0.13939013431994016,87.17681887915683
4.64,0.2393185136900514,-0.08960887287047772,86.82923765191357
4.65,0.2393185136900514,-0.040985617764194106,86.48069890062834
4.66,0.24860021775428345,-0.029991063157608706,86.16663101485483
4.67,0.22366547039528714,-0.02014150358697539,85.77404615763794
4.68,0.2381779653092771,-0.007988942637211168,85.45902074782244
4.69,0.2190246183631711,-0.0068309362940323515,85.17846620351867
4.7,0.23467766165793535,-0.004514923607674716,84.94291528918853
4.71,0.2103328531165809,0.0012751081082193723,84.68438379785059
4.72,0.24281881734139313,0.011697165196828731,84.39329648908489
4.73,0.1929493226234005,-0.017825490900617753,84.04475773779966
4.74,0.2294862000626869,0.001847605626195417,83.6971765105564
4.75,0.20628193990210672,0.00011710176504055459,83.3831086247829
4.76,0.22830632242740317,0.004163618312553052,83.09106379197522
4.77,0.23876790412691898,0.046424344184966534,82.85551287764508
4.78,0.24513924335745116,0.040634312469072446,82.92253956058455
4.79,0.2352676004755772,0.04179231881225126,83.75271290499197
4.8,0.2613822254698573,0.06379443933264879,86.33515524624549
4.81,0.26775356470038947,0.08462554220264079,91.47610182770273
4.82,0.310661781370208,0.11704971981164768,98.8959556291019
4.83,0.29673922527385993,0.12341224904551781,106.41730697895227
4.84,0.3530193884768942,0.17319351049498025,112.51290503027595
4.85,0.3483785364447782,0.18767509543832883,116.49812009304834
4.86,0.41044010006070275,0.22529078463080032,118.69755281750491
4.87,0.40752973522700287,0.22067177056531176,119.49517034448459
4.88,0.4707318472237017,0.24845091149437667,119.29313277162419
4.89,0.45161782953210516,0.24150287343530374,118.63052613456544
4.9,0.4927955590035076,0.22124426808328782,117.71034553021073
4.91,0.3982480311627708,0.1529349051429643,117.13774615309927
4.92,0.3385068935629042,0.06958447104854289,116.92421829173497
4.93,0.2996495901075598,0.07131497490969775,116.94719886874279
4.94,0.2607922866522154,0.043535833980632856,116.96922192170861
4.95,0.21961455718081296,0.02789624269410545,116.94719886874279
4.96,0.2497800953895672,0.04583883535976376,116.90219523876914
4.97,0.17552646287571064,-0.007416445119235124,116.87921466176132
4.98,0.19003895778970062,-0.005672929950853534,116.72218071887457
4.99,0.14827128950065632,-0.017825490900617753,116.4531164630747
5.0,0.205102062266823,0.016316179262317272,116.01552797588417
5.01,0.1569630547472465,-0.01666748455743894,115.49846499320827
5.02,0.18075725372546855,-0.004514923607674716,114.87032922166125
5.03,0.14886122831829818,-0.017825490900617753,114.12920561315913
5.04,0.1848081669399427,0.008223146167292278,113.1860444317966
5.05,0.18366761855916844,0.007637637342089505,111.96232870613031
5.06,0.18189780210624282,0.01863219194867491,110.34602812324712
5.07,0.14422037628618214,0.0035911207945770077,108.23564513469586
5.08,0.17261609804201075,0.012269662714804775,105.65416031748433
5.09,0.1430404986508984,0.043535833980632856,103.04969492326498
5.1,0.17438591449493637,0.04583883535976376,100.69227073187966
5.11,0.10650362121161201,-0.0068309362940323515,98.8959556291019
5.12,0.12683684579300175,0.0006895992830165992,97.71724353340925
5.13,0.12392648095930187,0.018059694430698863,97.27965504621872
5.14,0.08738960352001547,0.0006895992830165992,97.18964778627144
5.15,0.06941613420919321,-0.001040904578138263,97.246141704749
5.16,0.10245270799713785,0.015171184226365184,97.40317564763573
5.17,0.07173656022525123,0.01285517154000755,97.45966956611329
5.18,0.1181057512919021,0.02500773248977177,97.43668898910548
5.19,0.07869783827342527,0.0047491271377558255,97.27965504621872
5.2,0.12506702934007616,0.030212255380463085,97.04410413188859
5.21,0.0954914299489638,0.011697165196828731,96.62853869766388
5.22,0.19176944498811677,0.04699684170294258,96.17945992196944
5.23,0.17552646287571064,0.06032042030311235,95.66335446333554
5.24,0.17843682770941052,0.06726845836218524,95.14724900470162
5.25,0.1564124451841141,0.06668294953698248,94.57464962759016
5.26,0.18653865413835885,0.08868507005738001,94.03556359194845
5.27,0.0781078994557834,0.03890380860791758,93.46296421483699
5.28,0.03460974396832296,0.01285517154000755,92.92387817919526
5.29,-0.006567985503079471,-0.007416445119235124,92.35223632612579
5.3,-0.050066140990539916,-0.029405554332405933,91.74612360754459
5.31,-0.05411705420501408,-0.031721567018763566,91.2405509133726
5.32,-0.06398869708688802,-0.01841099972582053,90.7244454547387
5.33,-0.044284740577649605,0.009381152510471096,90.2188727605667
5.34,-0.044835350140782014,-0.02477352895969066,89.74777093190643
5.35,-0.06284814870611374,-0.0068309362940323515,89.37720912765538
5.36,-0.06339875826924615,0.056260892448373116,88.9951570349004
5.37,-0.038464010910249834,0.10604215389783556,88.64757580765716
5.38,0.35766024050901024,0.26582100664205893,88.31052734487584
5.39,0.7601558311588025,0.4226983378747219,88.04146308907596
5.4,1.089577666930022,0.19982765638809305,87.74941825626829
5.41,0.6870820762802297,-0.14113364948832174,87.4573734234606
5.42,0.17552646287571064,-0.16486627386987415,87.10979219621736
5.43,-0.008888411519137487,-0.081502828468226,86.7507206804702
5.44,-0.07964174038165227,-0.003942426089698671,86.45867584766252
5.45,-0.09010332208116807,-0.009732457805592759,86.17812130335874
5.46,-0.06630912310294604,0.03890380860791758,85.8295825520735
5.47,-0.1173584954562224,0.022691719803414136,85.50402437779609
5.48,-0.09010332208116807,0.016901688087520045,85.2234698334923
5.49,-0.13706245196546082,0.00995365002844714,84.94291528918853
5.5,-0.08892344444588433,0.04179231881225126,84.65087045638084
5.51,-0.16199719932445714,-0.01550947821426012,84.32531228210343
5.52,-0.12372983468675458,0.024422223664568997,84.02273468483382
5.53,-0.12490971232203832,0.04121982129427522,83.75271290499197
5.54,-0.10634630419357419,0.0400618149510964,83.4836486491921
5.55,-0.14752403366497663,0.01921770077387768,83.14660018641078
5.56,-0.08719295724746819,0.052786873418836665,82.83253230063727
5.57,-0.12199934748833843,0.05221437590086062,82.56346804483739
5.58,-0.11039721740804835,0.03195577054884467,82.74252504068998
5.59,-0.10170545216145815,0.06611045201900644,83.7871837705037
5.6,-0.0947441741132841,0.05337238224403944,86.71624981495847
5.61,-0.06803961030136219,0.0944751017732741,92.2622290661785
5.62,-0.044284740577649605,0.10315364369350187,99.80560346899469
5.63,-0.03500303651341754,0.14714487342707022,107.20343421742804
5.64,0.025328039904090893,0.1697194914654438,112.98400685893621
5.65,0.04389144803255503,0.23339682903305203,116.76718434884822
5.66,0.07578747343972539,0.24497689246484022,118.72053339451273
5.67,0.03575029234909724,0.1795690510360771,119.3046230601281
5.68,0.12738745535613416,0.23687084806258848,119.06811462175597
5.69,0.13552861103959196,0.22819230614236072,118.33848130175775
5.7,0.10709356002925388,0.1708774978086226,117.44032375036888
5.71,0.05085272608072908,0.12862978324343585,116.87921466176132
5.72,0.024738101086449023,0.0817370319983071,116.74516129588238
5.73,-0.0338231588781338,0.055688394930397074,116.8457013202916
5.74,-0.04310486294236587,0.049898363214502986,116.93570858023888
5.75,-0.12140940867069656,0.00995365002844714,116.94719886874279
5.76,-0.11503806944016438,-0.002198910921317081,116.86868189729941
5.77,-0.1318316611157029,0.0053216246557318695,116.76718434884822
5.78,-0.1324215999333448,-0.024201031441714618,116.52014314601418
5.79,-0.13879293916387697,-0.013206476835129212,116.16107163026702
5.8,-0.1068969137567066,0.0012751081082193723,115.76848677305013
5.81,-0.15562586009392496,-0.04909166216644583,115.29642742034788
5.82,-0.11098715622569022,-0.014936980696284075,114.69031470176668
5.83,-0.1225892863059803,-0.0027844197465198535,113.893654698829
5.84,-0.11562800825780625,-0.007988942637211168,112.95049351746647
5.85,-0.13647251314781894,-0.013778974353105258,111.6597511088607
5.86,-0.11676855663858053,-0.034623088530323975,109.99844689600388
5.87,-0.1347420259494028,-0.005100432432877489,107.82007970047115
5.88,-0.11503806944016438,-0.014936980696284075,105.35062519617273
5.89,-0.1347420259494028,-0.019569006068999344,102.79116343192702
5.9,-0.12140940867069656,-0.029991063157608706,100.50172344752318
5.91,-0.14807464322810904,-0.024201031441714618,98.84041923466634
5.92,-0.10807679139199033,0.008795643685268324,97.875235000338
5.93,-0.11794843427386427,0.01574368174434123,97.89725805330383
5.94,-0.12372983468675458,0.00706513982411346,98.35782711750217
5.95,-0.16954841619027305,-0.02129950993015421,98.62689137330204
5.96,-0.14402373001363486,-0.030563560675584748,98.63838166180595
5.97,-0.1289606255365125,0.001847605626195417,98.51486106038892
5.98,-0.1086667302096322,0.004163618312553052,98.24483928054707
5.99,-0.12313989586911271,-0.0068309362940323515,98.00928836621694
6.0,-0.07732131436559425,-0.007416445119235124,97.74022411041707
6.01,-0.06748900073822978,0.0006895992830165992,97.48169261907911
6.02,0.03807071836515526,0.07421649642125816,97.08910776186224
6.03,-0.02686188082995975,0.0313702617236419,96.62853869766388
6.04,-0.03268261049735952,0.021533713460235318,96.12392352753389
6.05,-0.05179662818895606,0.02384972614659295,95.56185691488434
6.06,-0.05529693184029782,0.019790198291853727,94.93372114333732
6.07,-0.14693409484733475,-0.017825490900617753,94.24909145331274
6.08,-0.14111336517993497,-0.002198910921317081,93.61999815772374
6.09,-0.181740485088205,-0.02129950993015421,93.02537572764645
6.1,-0.184060911104263,-0.028833056814429887,92.4757569275428
6.11,-0.21072614566167547,-0.05603970022551874,91.93667089190109
6.12,-0.2014444415974434,-0.04214362410737293,91.46461153919883
6.13,-0.2130465716777335,-0.04157112658939688,91.08351697048585
6.14,-0.19507310236691122,-0.040413120246218064,90.69093211326896
6.15,-0.22114839810668183,-0.034623088530323975,90.35388365048763
6.16,-0.258865153181252,0.0551028861051943,90.0053448992024
6.17,-0.08314204403299402,0.03427178323520231,89.59073698901969
6.18,0.44984801307917954,0.37290406511803276,89.17517155479497
6.19,0.9074438892967224,0.38680014123617856,88.82663280350974
6.2,0.7868210657162149,0.030212255380463085,88.54607825920597
6.21,0.2776252075822634,-0.1914874084557602,88.31052734487584
6.22,-0.037913401347117424,-0.12260554799746066,87.97347888209451
6.23,-0.22000784972590753,-0.09192488555683535,87.64792070781708
6.24,-0.19739352838296925,-0.04561764313690938,87.30033948057384
6.25,-0.24612247472018758,-0.0577702040866736,86.9412679648267
6.26,-0.2119060232969592,-0.017825490900617753,86.60421950204537
6.27,-0.24785296191860373,-0.040985617764194106,86.29015161627186
6.28,-0.21131608447931735,-0.007988942637211168,85.98661649496026
6.29,-0.22291821455960742,0.001847605626195417,85.76255586913403
6.3,-0.22114839810668183,-0.01725299338264171,85.53753771926581
6.31,-0.25017338793466176,-0.025931535302869478,85.35848072341324
6.32,-0.2379813190367298,-0.020727012412178163,84.99940920766609
6.33,-0.23393040582225563,-0.0033569172644958983,84.60586682640721
6.34,-0.20781578082797558,0.016316179262317272,84.37031591207707
6.35,-0.2403017450527878,0.0047491271377558255,84.12327470924303
6.36,-0.2095855972809012,0.0053216246557318695,83.95475047785237
6.37,-0.22464870175802357,0.013427669057983593,83.97773105486019
6.38,-0.181740485088205,0.04121982129427522,84.7073643748584
6.39,-0.21941791090826568,0.006479630998910688,87.0532982777398
6.4,-0.1881118243187372,0.04469384032381167,91.90315755043135
6.41,-0.15562586009392496,0.0857835485458196,99.24449438038714
6.42,-0.13765239078310268,0.10315364369350187,106.86638575464671
6.43,-0.14807464322810904,0.1182077261548265,113.11901774885713
6.44,-0.07618076598481997,0.16624547243590734,117.29478009598603
6.45,-0.05934784505477198,0.19576812853335382,119.67422734033717
6.46,-0.015849689567311538,0.21835575787895414,120.75239941162062
6.47,-0.0025170722886053063,0.21313822368103608,120.81942609456009
6.48,0.029378953118565056,0.20793370079034476,120.28034005891836
6.49,0.012546032188517074,0.19403762467219896,119.51719339745041
6.5,-0.015259750749669669,0.12862978324343585,118.87756733739948
6.51,-0.07791125318323612,0.08289503834148593,118.55200916312207
6.52,-0.12313989586911271,0.04758235052814535,118.64201642306935
6.53,-0.18984231151715333,0.0053216246557318695,118.85554428443366
6.54,-0.1991240155813854,-0.0033569172644958983,119.04609156879015
6.55,-0.24262217106884584,-0.010890464148771577,119.0010879388165
6.56,-0.22346882412273983,-0.006258438776056307,118.91108067886921
6.57,-0.23393040582225563,-0.004514923607674716,118.67552976453908
6.58,-0.25363436233149406,-0.038669605077836476,118.37295216726949
6.59,-0.2594550919988938,-0.020727012412178163,117.9679194975067
6.6,-0.23916119667201355,-0.020727012412178163,117.4747946158806
6.61,-0.29945294383501253,-0.08381884115458363,116.8571916087955
6.62,-0.24844290073624561,-0.024201031441714618,116.1390485773012
6.63,-0.2791590485081322,-0.050822166027600695,115.39792496879907
6.64,-0.26232612757808427,-0.03982761142101529,114.48827712890628
6.65,-0.28147947452419025,-0.046775649480088194,113.25402863877807
6.66,-0.24785296191860373,-0.01550947821426012,111.50271716597395
6.67,-0.2919410562237061,-0.038669605077836476,109.2008293690242
6.68,-0.265826431229426,-0.031721567018763566,106.51880452740347
6.69,-0.29426148223976406,-0.025359037784893432,103.73432461328954
6.7,-0.2710572220791839,-0.01898349724379657,101.45541739334762
6.71,-0.28785081375472243,-0.01725299338264171,99.76059983902105
6.72,-0.29426148223976406,-0.02651704412807225,98.70540834474542
6.73,-0.31801635196347666,-0.044459636793730564,97.96428473624329
6.74,-0.30177336985107056,-0.03287957336194238,97.60521322049614
6.75,-0.3133754999313606,-0.025359037784893432,97.69522048044342
6.76,-0.32847793366299244,-0.03925511390303925,97.98726531325111
6.77,-0.342951099322473,-0.03635359239147884,98.24483928054707
6.78,-0.30295324748635427,-0.020727012412178163,98.23430651608516
6.79,-0.31455537756664437,-0.02188501875535698,98.05429199619059
6.8,-0.29945294383501253,-0.04561764313690938,97.69522048044342
6.81,-0.28671026537394817,-0.02188501875535698,97.33614896469628
6.82,-0.22059778854354942,0.018059694430698863,96.9426065834374
6.83,-0.21131608447931735,0.022691719803414136,96.5385314377166
6.84,-0.2153669976937915,0.020948204635032545,96.02242597908268
6.85,-0.27278770927760004,0.0035911207945770077,95.49483023194487
6.86,-0.22464870175802357,0.020948204635032545,94.85520417189394
6.87,-0.3087346478992446,-0.010890464148771577,94.22611087630493
6.88,-0.33425933407588276,-0.01725299338264171,93.61999815772374
6.89,-0.39050016802440757,-0.05603970022551874,93.04739878061227
6.9,-0.3992312625255072,-0.03982761142101529,92.51980303347446
6.91,-0.39341053285810745,-0.034623088530323975,91.98167452187472
6.92,-0.40965351497051355,-0.050822166027600695,91.45407877473691
6.93,-0.41952515785238753,-0.053723687539161104,90.99350971053856
6.94,-0.4090635761528717,-0.04966415968442188,90.60092485332167
6.95,-0.4142943670026296,-0.03519558604830002,90.19684970760088
6.96,-0.42939680073426145,-0.045032134311706606,89.803307326342
6.97,-0.45952300968850623,0.03427178323520231,89.46721638760266
6.98,-0.143433791195993,0.08636905737102238,89.07367400634378
6.99,0.327494702300256,0.45106298762898955,88.75960612057027
7.0,0.7624762571748605,0.27971708276020474,88.4790515762665
7.01,0.3640315797395424,-0.15791823581080122,88.23201037343246
7.02,-0.010068289154421225,-0.2088575036034425,87.93996554062477
7.03,-0.29945294383501253,-0.13128408991768842,87.68239157332881
7.04,-0.3748471247296433,-0.05951371925505519,87.32236253353966
7.05,-0.40501266293839755,-0.04909166216644583,86.89626433485304
7.06,-0.40619254057368126,-0.03346508218714516,86.51421224209807
7.07,-0.4386391755439841,-0.04214362410737293,86.16663101485483
7.08,-0.42994741029739386,-0.044459636793730564,85.8295825520735
7.09,-0.44445990521138384,-0.034623088530323975,85.51551466629999
7.1,-0.4322678363134519,-0.040985617764194106,85.23496012199622
7.11,-0.41370442818498776,-0.02014150358697539,84.97642863065826
7.12,-0.4172047318363295,-0.013778974353105258,84.72938742782422
7.13,-0.43808856598085166,-0.03809710755986043,84.49383651349409
7.14,-0.37370657634886906,0.014013177883186366,84.24679531066005
7.15,-0.4258964970829197,-0.02767505047125107,83.95475047785237
7.16,-0.371386150332811,0.00706513982411346,83.6971765105564
7.17,-0.3969108365094492,-0.005100432432877489,83.60716925060912
7.18,-0.3562837166011792,0.018059694430698863,83.93272742488654
7.19,-0.3754370635472852,0.01921770077387768,85.25698317496204
7.2,-0.33543921171116653,0.0400618149510964,88.62459523064935
7.21,-0.3383102472903569,0.059162413959933526,94.72019328197301
7.22,-0.3023633086687124,0.08230952951628315,102.3535749447365
7.23,-0.2965819082558221,0.09620560563442897,109.34733054744905
7.24,-0.24494259708490385,0.13383430613412717,114.62328801882721
7.25,-0.20899565846325932,0.1778255358676955,117.94589644454086
7.26,-0.14925452086339278,0.2142962300242149,119.6072006573977
7.27,-0.13879293916387697,0.22067177056531176,120.08979277456187
7.28,-0.08833350562824246,0.21951376422213295,119.9107357787093
7.29,-0.07964174038165227,0.20677569444716595,119.29313277162419
7.3,-0.05993778387241385,0.1905636056426625,118.61903584606154
7.31,-0.15503592127628307,0.10199563735032305,118.21496070034074
7.32,-0.19275267635085322,0.05800440761675471,118.20442793587883
7.33,-0.2571346659828358,0.007637637342089505,118.34997159026166
7.34,-0.24553253590254573,0.02500773248977177,118.56349945162597
7.35,-0.3139654387490025,-0.019569006068999344,118.61903584606154
7.36,-0.3151059871297768,-0.03578109487350279,118.54051887461816
7.37,-0.31278556111371875,-0.03346508218714516,118.33848130175775
7.38,-0.29599196943818024,-0.01666748455743894,118.06941704595789
7.39,-0.342951099322473,-0.043874127968527785,117.71034553021073
7.4,-0.32556756882929255,-0.04734814699806424,117.31776067299386
7.41,-0.32615750764693446,-0.0427291329325757,116.80069769031795
7.42,-0.33425933407588276,-0.05951371925505519,116.18309468323285
7.43,-0.349912377370647,-0.06761976365730692,115.46495165173855
7.44,-0.3220672651779508,-0.04966415968442188,114.6117977303233
7.45,-0.32556756882929255,-0.054296185057137146,113.55660623604767
7.46,-0.29481209180289647,-0.03925511390303925,112.17585656749462
7.47,-0.32383708163087643,-0.0427291329325757,110.29049172881156
7.48,-0.2629160663957261,0.018059694430698863,107.83156998897506
7.49,-0.3110550739153026,0.00011710176504055459,105.07007065186896
7.5,-0.3528227422043469,-0.08324634363660759,102.44358220468378
7.51,-0.3441309769577567,-0.03982761142101529,100.29968587466277
7.52,-0.3035038570494867,-0.013778974353105258,98.87393257613608
7.53,-0.34063067330641494,-0.028247547989227115,98.06578228469449
7.54,-0.3104651350976607,-0.01725299338264171,97.7622471633829
7.55,-0.3383102472903569,-0.028833056814429887,97.78522774039071
7.56,-0.3110550739153026,-0.013206476835129212,97.97577502474721
7.57,-0.3626943850862208,-0.0664617573141281,98.09929562616422
7.58,-0.30409379586712854,-0.019569006068999344,98.04280170768666
7.59,-0.2791590485081322,0.00706513982411346,97.78522774039071
7.6,-0.2710572220791839,-0.0027844197465198535,97.4702023305752
7.61,-0.30122276028793815,-0.03635359239147884,97.16762473330562
7.62,-0.23857125785437167,0.008223146167292278,96.83057627052428
7.63,-0.2101362068440336,0.005907133480934643,96.40447807183766
7.64,-0.1562157989115668,0.046424344184966534,95.86539203619593
7.65,-0.1979834672006111,0.03252826806682072,95.24778902911083
7.66,-0.20840571964561747,0.03252826806682072,94.61965325756381
7.67,-0.25017338793466176,-0.008574451462413943,93.9905599619748
7.68,-0.27392825765837436,-0.01550947821426012,93.41796058486334
7.69,-0.3116450127329445,-0.011462961666747621,92.84536120775188
7.7,-0.3197468391618928,-0.003942426089698671,92.28425211914433
7.71,-0.3719760891504529,-0.04966415968442188,91.72314303053678
7.72,-0.3331187856951085,-0.016094987039462893,91.16203394192922
7.73,-0.3626943850862208,-0.037511598734657654,90.66795153626114
7.74,-0.29945294383501253,0.02384972614659295,90.2303630490706
7.75,-0.38994955846127516,-0.054296185057137146,89.8147976148459
7.76,-0.3673352371183369,-0.04966415968442188,89.38869941615928
7.77,-0.41834528021710377,-0.013206476835129212,88.96164369343067
7.78,-0.342951099322473,0.04121982129427522,88.56905883621378
7.79,0.04444205759568744,0.2577149622398072,88.26552371490219
7.8,0.5571382193809807,0.508364784655501,87.97347888209451
7.81,0.7949622213996728,0.1847735739267684,87.63738794335517
7.82,0.4174013781088768,-0.18396687287871127,87.23331279763437
7.83,-0.09588472249405838,-0.18107836267437757,86.82923765191357
7.84,-0.2379813190367298,-0.09019438169568049,86.45867584766252
7.85,-0.3441309769577567,-0.022457516273333027,86.20014435632457
7.86,-0.3070041607008284,0.012269662714804775,85.90809952351688
7.87,-0.3470020125369471,0.016316179262317272,85.56051829627364
7.88,-0.34932243855300515,0.0024331144513981898,85.16793343905675
7.89,-0.36501481110227885,0.008223146167292278,84.8193946877715
7.9,-0.33252884687746664,0.02963975786248704,84.49383651349409
7.91,-0.3557331070380468,0.03542978957838113,84.25828559916395
7.92,-0.3151059871297768,0.06552494319380366,84.03422497333774
7.93,-0.3748471247296433,0.005907133480934643,83.77569348199978
7.94,-0.3661553594830531,0.026165738832950588,83.45013530772236
7.95,-0.347591951354589,0.0441083314986089,83.09106379197522
7.96,-0.32961848204376676,0.049898363214502986,82.75401532919389
7.97,-0.33193890805982473,0.06379443933264879,82.50697412635985
7.98,-0.3168758035827024,0.062050924164267204,82.43994744342038
7.99,-0.3197468391618928,0.06436693685062485,82.65347530478468
8.0,-0.3070041607008284,0.0857835485458196,83.75271290499197
8.01,-0.30932458671688645,0.0915735802617137,86.83977041637549
8.02,-0.2710572220791839,0.12862978324343585,92.80131510182022
8.03,-0.25017338793466176,0.16683098126111012,100.62524404894019
8.04,-0.22232827574196556,0.1639294597495497,107.9780711673999
8.05,-0.22291821455960742,0.18420107640879238,113.55660623604767
8.06,-0.1678179289918569,0.23687084806258848,117.0592291816559
8.07,-0.17997066863527938,0.22819230614236072,118.7875600774522
8.08,-0.11271764342410637,0.2559714470714256,119.2031255116769
8.09,-0.09010332208116807,0.26582100664205893,118.83256370742583
8.1,-0.038464010910249834,0.2640774914736773,118.00239036301842
8.11,-0.11794843427386427,0.1836155675835896,117.04773889315199
8.12,-0.10807679139199033,0.15872493685885838,116.46460675157861
8.13,-0.20376486761350143,0.08521105102784356,116.31810557315377
8.14,-0.23684077065595552,0.0551028861051943,116.48662980454444
8.15,-0.27974898732577413,0.02963975786248704,116.68866737740484
8.16,-0.2687367960631259,0.04931285438930021,116.76718434884822
8.17,-0.32847793366299244,0.011697165196828731,116.63217345892728
8.18,-0.31278556111371875,0.012269662714804775,116.38513225609324
8.19,-0.32556756882929255,-0.001040904578138263,116.07106437031973
8.2,-0.3139654387490025,-0.01550947821426012,115.65549893609503
8.21,-0.32092671679717655,0.0047491271377558255,115.13939347746113
8.22,-0.3070041607008284,0.011111656371625958,114.62328801882721
8.23,-0.35050231618828886,-0.03230707584396634,114.02866558874993
8.24,-0.29772245663659636,-0.012048470491950396,113.24253835027416
8.25,-0.32265720399559267,0.004163618312553052,112.19883714450243
8.26,-0.32615750764693446,-0.005672929950853534,110.87362387038495
8.27,-0.35050231618828886,-0.043874127968527785,109.13380268608474
8.28,-0.30814470908160274,0.0030056119693742346,106.89989909611644
8.29,-0.36556542066541126,-0.03635359239147884,104.27341064893128
8.3,-0.3133754999313606,-0.013778974353105258,101.70245859618166
8.31,-0.3267081172100669,0.01285517154000755,99.54707197765674
8.32,-0.35746359423646296,-0.030563560675584748,97.99779807771303
8.33,-0.3673352371183369,-0.016094987039462893,97.07761747335832
8.34,-0.3528227422043469,-0.030563560675584748,96.69652290464535
8.35,-0.33425933407588276,-0.001040904578138263,96.69652290464535
8.36,-0.36210444626857896,-0.02361552261651184,96.87557990049793
8.37,-0.4038721145576233,-0.038669605077836476,97.10059805036614
8.38,-0.3626943850862208,-0.009732457805592759,97.11113081482806
8.39,-0.366745298300695,-0.03635359239147884,96.93207381897548
8.4,-0.3365797600919408,-0.022457516273333027,96.6515192746717
8.41,-0.3754370635472852,-0.07687080309551073,96.3479841533601
8.42,-0.2774285613097161,0.005907133480934643,96.03391626758659
8.43,-0.280338926143416,-0.011462961666747621,95.66335446333554
8.44,-0.2919410562237061,-0.004514923607674716,95.18076234617136
8.45,-0.2936715434221222,0.016901688087520045,94.596672680556
8.46,-0.29481209180289647,0.00011710176504055459,93.96853690900898
8.47,-0.39514102005652363,-0.07282428654799823,93.33944361341996
8.48,-0.42939680073426145,-0.07109378268684337,92.78982481331632
8.49,-0.45201112207719973,-0.04909166216644583,92.2622290661785
8.5,-0.47749647899932846,-0.060086216773031234,91.73463331904068
8.51,-0.4914190350956766,-0.06414574462777047,91.19554728339895
8.52,-0.4908684255325442,-0.08497684749776245,90.69093211326896
8.53,-0.5262254253365468,-0.10986747822249367,90.20738247206279
8.54,-0.45256173164033214,-0.03114906950078752,89.76979398487227
8.55,-0.5018806167951924,-0.08208833729342876,89.36571883915147
8.56,-0.5175336600899566,-0.11045298704769643,88.93962064046484
8.57,-0.5760949200545394,-0.007988942637211168,88.52405520624013
8.58,-0.3626943850862208,-0.0033569172644958983,88.16498369049299
8.59,0.12042617730796011,0.2802895802781808,87.86144856918139
8.6,0.6632878773020077,0.32949834420966717,87.56940373637372
8.61,0.4405663090149475,-0.04850615334124306,87.26682613910411
8.62,-0.05356644464188167,-0.2794828792301236,86.96329101779251
8.63,-0.3910901068420494,-0.2100155099466213,86.6377328435151
8.64,-0.4850476958651444,-0.12955358605653355,86.32366495774158
8.65,-0.5134827468754825,-0.10870947187931485,85.98661649496026
8.66,-0.5384174942344788,-0.1249215606838183,85.67254860918675
8.67,-0.5418784686313111,-0.10466295533180235,85.38050377637906
8.68,-0.5285458513526048,-0.11276899973405408,85.13346257354502
8.69,-0.5633522415934751,-0.1121834909088513,84.90940194771879
8.7,-0.5128928080578405,-0.07687080309551073,84.60586682640721
8.71,-0.5337766422023628,-0.09135238803885931,84.3032892291376
8.72,-0.5268153641541887,-0.09830042609793221,83.999754107826
8.73,-0.5488397466794851,-0.11740102510676935,83.67419593354859
8.74,-0.5244949381381306,-0.09482640706839576,83.37161833627898
8.75,-0.5308662773686629,-0.08787836900932286,83.09106379197522
8.76,-0.5366870070360626,-0.1081369743613388,82.75401532919389
8.77,-0.5099824432241407,-0.081502828468226,82.52995470336766
8.78,-0.5134827468754825,-0.07629830557753468,82.49548383785594
8.79,-0.520994634486789,-0.09482640706839576,83.01254682053184
8.8,-0.4728949562217219,-0.050822166027600695,84.98791891916217
8.81,-0.465343739355906,-0.029405554332405933,89.43274552209094
8.82,-0.45433154809325776,-0.02188501875535698,96.40447807183766
8.83,-0.41488430582027147,0.014585675401162412,104.1948936774879
8.84,-0.3992312625255072,0.024422223664568997,110.7280802160021
8.85,-0.3974614460725816,0.03252826806682072,115.36441162732933
8.86,-0.34008006374328253,0.06089291782108839,118.10293038742762
8.87,-0.3186062907811185,0.08115152317310434,119.2031255116769
8.88,-0.2687367960631259,0.08462554220264079,119.21461580018081
8.89,-0.2594550919988938,0.07826301296877065,118.64201642306935
8.9,-0.22755906659172345,0.07826301296877065,117.72183581871465
8.91,-0.2774285613097161,0.019790198291853727,116.92421829173497
8.92,-0.3139654387490025,-0.034623088530323975,116.59866011745756
8.93,-0.35455322940276307,-0.06067172559823401,116.62164069446537
8.94,-0.38180840277781736,-0.08960887287047772,116.73367100737848
8.95,-0.45547209647403203,-0.1249215606838183,116.81218797882185
8.96,-0.4334477139487356,-0.11855903144994816,116.77867463735213
8.97,-0.4450498440290257,-0.11740102510676935,116.71069043037066
8.98,-0.44272941801296767,-0.1318695987428912,116.61015040596146
8.99,-0.47462544342013807,-0.1625502611835165,116.30661528464987
9.0,-0.4432800275761001,-0.1503977002337523,115.93701100444079
9.01,-0.443869966393742,-0.14054814066311896,115.46495165173855
9.02,-0.41602485420104574,-0.10929498070451762,114.9153328516349
9.03,-0.4537416092756159,-0.14633817237901306,114.26421650308006
9.04,-0.4386391755439841,-0.15212820409490715,113.34307837468336
9.05,-0.4386391755439841,-0.11971703779312698,112.19883714450243
9.06,-0.42762698428133583,-0.13939013431994016,110.76159355747183
9.07,-0.43808856598085166,-0.145765674861037,108.87527119474679
9.08,-0.4085129665897393,-0.11913152896792421,106.56285063333512
9.09,-0.4044227241207557,-0.10929498070451762,103.91433913318411
9.1,-0.43167789749581004,-0.13475810894722487,101.3433870804345
9.11,-0.4218455838684455,-0.12723757337017594,99.31152106332661
9.12,-0.38239834159545927,-0.09655691092955063,98.02077865472084
9.13,-0.4189352190347456,-0.1081369743613388,97.41466593613966
9.14,-0.41661479301868765,-0.12028953531110302,97.369662306166
9.15,-0.4258964970829197,-0.1249215606838183,97.58319016753032
9.16,-0.39978187208863963,-0.10061643878428986,97.79576050485262
9.17,-0.3957309588741655,-0.11565750993838775,97.875235000338
9.18,-0.37661694118256894,-0.07918681578186836,97.83023137036436
9.19,-0.3754370635472852,-0.07398229289117705,97.70671076894733
9.2,-0.38180840277781736,-0.12898108853855753,97.49318290758303
9.21,-0.36092456863329525,-0.1011889363022659,97.13411139183587
9.22,-0.3267081172100669,-0.09482640706839576,96.71854595761117
9.23,-0.30295324748635427,-0.0884508665272989,96.28095747042065
9.24,-0.22114839810668183,-0.04734814699806424,95.7198483818131
9.25,-0.25481423996677777,-0.05951371925505519,95.13575871619771
9.26,-0.24612247472018758,-0.029991063157608706,94.54113628612043
9.27,-0.2519038751330779,-0.04561764313690938,93.93502356753923
9.28,-0.2808895357065484,-0.05951371925505519,93.38444724339361
9.29,-0.3302084208614086,-0.081502828468226,92.84536120775188
9.3,-0.3510922550059308,-0.09019438169568049,92.29574240764823
9.31,-0.38817974200834954,-0.10582096167498117,91.7566563720065
9.32,-0.36847578549911114,-0.08787836900932286,91.19554728339895
9.33,-0.3893596196436333,-0.10755146553613604,90.75795879620843
9.34,-0.3760270023649271,-0.10291944016342076,90.4209103334271
9.35,-0.3696556631343949,-0.08381884115458363,90.03981576471412
9.36,-0.35223280338670504,-0.07282428654799823,89.61276004198551
9.37,-0.369065724316753,-0.0884508665272989,89.25368852623835
9.38,-0.40965351497051355,0.004163618312553052,88.93962064046484
9.39,-0.21072614566167547,0.0313702617236419,88.63608551915326
9.4,0.23412705209480295,0.2953436627395054,88.31052734487584
9.41,0.7160677368537002,0.38564213489299976,87.95145582912868
9.42,0.6899531118594201,0.029054249037284267,87.64792070781708
9.43,0.24804960819115104,-0.19670494265367827,87.40183702902503
9.44,-0.11153776578882263,-0.16543877138785018,87.15479582619099
9.45,-0.27160783164231633,-0.1208750441363058,86.82923765191357
9.46,-0.2774285613097161,-0.061244223116210056,86.44718555915861
9.47,-0.28730020419159,-0.040413120246218064,86.1216273848812
9.48,-0.27337764809524195,-0.03114906950078752,85.84107284057741
9.49,-0.28962063020764806,-0.031721567018763566,85.5270049548039
9.5,-0.27160783164231633,-0.014351471871081302,85.24645041050013
9.51,-0.24958344911701988,0.0203757071170565,84.99940920766609
9.52,-0.2745181964760162,-0.009732457805592759,84.72938742782422
9.53,-0.27278770927760004,-0.019569006068999344,84.44883288352045
9.54,-0.24899351029937802,0.008795643685268324,84.22477225769423
9.55,-0.24785296191860373,0.0012751081082193723,83.95475047785237
9.56,-0.23393040582225563,0.011697165196828731,83.67419593354859
9.57,-0.22523864057566545,0.016901688087520045,83.46162559622627
9.58,-0.22059778854354942,0.0030056119693742346,83.32661470630535
9.59,-0.1991240155813854,0.03890380860791758,83.3831086247829
9.6,-0.18056060745292127,0.04469384032381167,84.07827107926938
9.61,-0.1596767733083991,0.08230952951628315,86.36866858771523
9.62,-0.14402373001363486,0.08521105102784356,91.33055817331989
9.63,-0.1283706867188706,0.10026513348916818,98.55986469036257
9.64,-0.08778289606511006,0.1361503188204848,106.09174880467485
9.65,-0.09124387046194235,0.1361503188204848,112.23235048597216
9.66,-0.030952123298943375,0.1894055992994837,116.32959586165768
9.67,-0.015259750749669669,0.20561768810398715,118.687020053043
9.68,0.024148162268807158,0.22067177056531176,119.70869820584889
9.69,0.06532589174020959,0.23861436323097007,119.77572488878836
9.7,0.09376094275054765,0.24093037591732772,119.31515582459001
9.71,0.11523471571271167,0.20677569444716595,118.57498974012988
9.72,0.11696520291112782,0.21545423636739372,118.03590370448815
9.73,0.031109440316981207,0.10431165003668069,117.92387339157504
9.74,0.015456397022216958,0.10894367540939595,118.0809073344618
9.75,-0.029772245663659637,0.062050924164267204,118.21496070034074
9.76,-0.06571918428530417,0.028481751519308224,118.25996433031438
9.77,-0.07618076598481997,0.030212255380463085,118.21496070034074
9.78,-0.0982051485101164,-0.003942426089698671,118.13644372889736
9.79,-0.1034359393598743,-0.012048470491950396,117.9679194975067
9.8,-0.09706460012934212,-0.011462961666747621,117.71034553021073
9.81,-0.08196216639771028,0.005907133480934643,117.3618067789255
9.82,-0.07445027878640383,0.0024331144513981898,116.8571916087955
9.83,-0.06803961030136219,0.0053216246557318695,116.28459223168404
9.84,-0.0703600363174202,-0.009732457805592759,115.71199285457259
9.85,-0.05470699302265595,0.00011710176504055459,115.00438258754019
9.86,-0.07094997513506207,-0.01262096800992644,114.0956922716894
9.87,-0.044284740577649605,-0.002198910921317081,112.82697291604946
9.88,-0.05529693184029782,-0.001040904578138263,111.17715899169653
9.89,-0.04078443692630785,0.011111656371625958,109.02177237317163
9.9,-0.050066140990539916,-0.010890464148771577,106.46231060892592
9.91,-0.029182306846017768,0.018059694430698863,103.82433187323683
9.92,-0.04542528895842388,-0.006258438776056307,101.47839797035543
9.93,-0.03209267167971765,0.008795643685268324,99.7155962090474
9.94,-0.006567985503079471,0.02210621097821136,98.64891442626786
9.95,-0.02049054159942757,0.011111656371625958,98.15578954464178
9.96,-0.037323462529475555,-0.006258438776056307,98.08780533766031
9.97,-0.05411705420501408,-0.029991063157608706,98.23430651608516
9.98,-0.044284740577649605,-0.02477352895969066,98.43634408894555
9.99,-0.02745181964760162,0.0024331144513981898,98.46985743041529
