time_s,ECG1,ECG2,NIBP
0.0,0.11378673457148519,0.025839208019182366,81.67970603389416
0.01,0.1851422048123566,0.10689584108336819,81.37657143601683
0.02,1.3029536152969827,0.4959795258467125,81.12927742195902
0.03,1.7240827768205451,0.572416197362483,80.90502872820765
0.04,0.9653226330992585,0.3089747361193463,80.69230269460952
0.05,0.1433931151494376,-0.1652228556321128,80.53541724483091
0.06,0.00882279236885217,-0.0905334772660636,80.45653134070494
0.07,0.08654522617487463,-0.06448696327996516,80.41132705856533
0.08,0.08654522617487463,-0.01295662293225477,80.36700913489906
0.09,0.06912703299306855,-0.05290744427079576,80.28812323077308
0.1,0.03897491268096036,0.002680170000843558,80.1427604411477
0.11,0.0940946258306966,-0.042482915648730205,79.94067070922948
0.12,0.0871364442202101,-0.008321853814773919,79.73858097731126
0.13,0.09177523196053443,-0.0343831753699378,79.55865020722618
0.14,0.08131522038921485,-0.014111613319358621,79.31224255164167
0.15,0.11033038292183177,-0.023958646747872247,78.96390367162475
0.16,0.14630372706493522,0.009047424698980186,78.57124686794154
0.17,0.1538076484095775,-0.018168887243287545,78.2016353845648
0.18,0.16135704806539947,0.02699419840628622,77.89850078668746
0.19,0.17877524124720556,-0.007166863427670066,77.6742520929361
0.2,0.21010979764998466,0.05652049112276166,77.44911704071141
0.21,0.26463829275438544,0.04089850575872877,77.1468688013074
0.22,0.3214861817289484,0.09995109119167964,76.81005258144371
0.23,0.37483224074267824,0.07505956759268505,76.50691798356638
0.24,0.4067580151907928,0.12542010998422615,76.38371415577413
0.25,0.436910135502901,0.08315930787147746,76.93325640923595
0.26,0.4270413419769169,0.10516335550271241,79.44696903958716
0.27,0.35568587173604543,0.02352922724497466,85.16929934337678
0.28,0.26404707470905,0.017739467740389956,93.30341105308516
0.29,0.1886440347731897,-0.041327925261626354,101.55009028890588
0.3,0.12251857031797807,-0.036693156144145506,108.00189361624241
0.31,0.08131522038921485,-0.0905334772660636,112.2094372891187
0.32,0.058712499732928615,-0.05521742504500347,114.57690077137119
0.33,0.052300057856597915,-0.10559277500561,115.39589600072397
0.34,0.0505718820317712,-0.06564195366706901,115.0253981588739
0.35,0.04943492425227994,-0.10732526058626579,113.67901963789242
0.36,0.04766127011627358,-0.06216217493669202,111.3904420597659
0.37,0.057530063642257705,-0.10501527981205808,108.88825208956794
0.38,0.058712499732928615,-0.06390946808641323,106.59967451144142
0.39,0.061577633337246584,-0.10153550108168108,104.41125544080069
0.4,0.06739885716824183,-0.05754221338827661,102.03315565686829
0.41,0.06621642107757092,-0.09343576080288868,99.55312464850346
0.42,0.05407371199260428,-0.07085421797810179,97.08461630029187
0.43,0.06448824525274421,-0.0940132559964406,94.79603872216535
0.44,0.058712499732928615,-0.061584679743140094,92.86554996726234
0.45,0.06044067555775533,-0.10443778461850615,91.34012703466911
0.46,0.06912703299306855,-0.05637241543210732,90.22951986759222
0.47,0.06389702720740875,-0.0940132559964406,89.38747931793297
0.48,0.06680763912290638,-0.04827267515331491,88.72536953835879
0.49,0.06335128747325296,-0.10153550108168108,88.07478241893786
0.5,0.06044067555775533,-0.05637241543210732,87.32315043355781
0.51,0.07030946908373946,-0.08358872737437505,86.39158767809268
0.52,0.06103189360309078,-0.059274698968932386,84.95568695130532
0.53,0.06739885716824183,-0.08764600129830397,83.63146739215698
0.54,0.0627600694279175,-0.05406243465789961,82.9028807270834
0.55,0.06621642107757092,-0.09111097245961554,82.64406405287234
0.56,0.058712499732928615,-0.05290744427079576,82.75663157898468
0.57,0.0627600694279175,-0.08937848687895975,82.89135806693017
0.58,0.06044067555775533,-0.05521742504500347,82.94719865074967
0.59,0.06507946329807966,-0.0882234964918559,83.02608455487564
0.6,0.0627600694279175,-0.06912173239744601,83.29553753076661
0.61,0.06044067555775533,-0.09864802511392144,83.84507978422843
0.62,0.06448824525274421,-0.05579492023855539,84.60823442976171
0.63,0.09755097748035002,-0.08070125140661541,85.32618479315539
0.64,0.1149691706621561,-0.02684612271563188,85.92093132875682
0.65,0.14976007871458863,-0.04827267515331491,86.3020654722868
0.66,0.14048250323393996,-0.022211353598151032,86.48199624237188
0.67,0.12192735227264262,-0.061007184549588166,86.47047358221864
0.68,0.1659958358057238,-0.0007996087295334372,86.3472697544264
0.69,0.12656614001296695,-0.030903396639560803,86.13365736235495
0.7,0.09987037135051219,-0.004264579890844998,85.76404587897821
0.71,0.08304339621404155,-0.08012375621306349,85.25882154918266
0.72,0.042476742641793436,-0.07085421797810179,84.68623397541437
0.73,0.052300057856597915,-0.08358872737437505,84.05780581782656
0.74,0.04711553038211777,-0.05232994907724383,83.41874135855885
0.75,0.04420491846662015,-0.09690073196420024,82.75663157898468
0.76,0.04998066398643575,-0.044215401229385984,82.09452179941051
0.77,0.04711553038211777,-0.0963232367706483,81.46609364182271
0.78,0.057530063642257705,-0.05290744427079576,80.92807404851412
0.79,0.06216885138258204,0.04320848653293647,80.4343723788718
0.8,0.8185641229225268,0.3130172024742098,79.96282967106262
0.81,1.7687424783989618,0.5984627113485814,79.48065066157353
0.82,1.3197805904334534,0.3807618309485704,79.04278957575072
0.83,0.3887486039636513,-0.07085421797810179,78.69533705420712
0.84,0.0192373256289921,-0.16233537966435319,78.36915713602332
0.85,0.08017826260972358,-0.10674776539271386,78.04386357631284
0.86,0.07608521460355505,-0.039580632111905135,77.70793371492248
0.87,0.08536279008420372,-0.0789539582568942,77.39327645689191
0.88,0.08536279008420372,-0.018168887243287545,77.12382348100094
0.89,0.1010528074411831,-0.037270651337697434,76.91109744740282
0.9,0.09755097748035002,-0.007744358621221993,76.7542119976242
0.91,0.10914794683116086,-0.022211353598151032,76.60796284952549
0.92,0.10682855296099869,0.021781934095253443,76.4173957777605
0.93,0.10914794683116086,-0.04363790603583406,76.18162442385591
0.94,0.12829431583779366,0.024684217632078512,75.92369410811818
0.95,0.14107372127927542,-0.010631834588981627,75.7331270363532
0.96,0.13875432740911325,0.022951732051422733,75.56471892642134
0.97,0.182231592896859,0.028741491556007435,75.4415150986291
0.98,0.21065553738414047,0.07967952914110046,75.36262919450311
0.99,0.24199009378691957,0.055365500735657804,75.23942536671088
1.0,0.2808740498455206,0.11905285528608953,75.00365401280628
1.01,0.3481364720802235,0.09589381726775072,74.66683779294257
1.02,0.3962980036194732,0.1509039363458381,74.31938527139897
1.03,0.42008316036643034,0.12542010998422615,74.1952950851334
1.04,0.4137161968012793,0.14626916722835726,74.88045018501403
1.05,0.38529225231399783,0.0953163220741988,77.68488839461601
1.06,0.2866497953653362,0.06057776504669058,83.4861046025316
1.07,0.22284372478028677,-0.0002221135359815103,91.5306941064341
1.08,0.1433931151494376,0.015414679397116816,99.87841820821393
1.09,0.1132409948373294,-0.05290744427079576,106.53231126746869
1.1,0.07090068712907491,-0.021056363211047178,110.82937714615085
1.11,0.06507946329807966,-0.05463992985145154,113.09579576244423
1.12,0.05639310586276645,-0.028001113102735734,113.70206495819889
1.13,0.05580188781743099,-0.06621944886062094,113.14100004458382
1.14,0.046524312336782316,-0.040172934874522497,111.58100913153089
1.15,0.05116310007710666,-0.06621944886062094,109.13554610362576
1.16,0.05693884559692225,-0.021056363211047178,106.67767405709407
1.17,0.04302248237594924,-0.06216217493669202,104.5123003067598
1.18,0.04420491846662015,-0.028001113102735734,102.49317570452425
1.19,0.05461945172676008,-0.059274698968932386,100.46164208366213
1.2,0.0627600694279175,-0.014111613319358621,98.29626833332786
1.21,0.0627600694279175,-0.05058265592752262,95.99616809504812
1.22,0.05116310007710666,-0.014111613319358621,93.67390889493522
1.23,0.06507946329807966,-0.042482915648730205,91.56437572842047
1.24,0.06739885716824183,-0.01295662293225477,89.76949981993627
1.25,0.0766764326488905,-0.034960670563489726,88.32207643299569
1.26,0.05521066977209554,-0.01642159409356633,87.18842394561233
1.27,0.06507946329807966,-0.04769517995976298,86.25774754862053
1.28,0.06507946329807966,-0.00658936823411814,85.34834375498853
1.29,0.05984945751241987,-0.04654018957265913,84.31662249203761
1.3,0.05639310586276645,-0.014111613319358621,83.16081104282112
1.31,0.05639310586276645,-0.04537039161648984,82.02715855543778
1.32,0.05116310007710666,-0.017591392049735616,81.09648215844597
1.33,0.05580188781743099,-0.05058265592752262,80.57973516849718
1.34,0.04711553038211777,-0.017591392049735616,80.54605354651082
1.35,0.05289127590193337,-0.05579492023855539,80.93871035019403
1.36,0.046524312336782316,-0.022788848791702957,81.4102530580032
1.37,0.07376582073339288,-0.04190542045517828,81.80290986168642
1.38,0.10860220709700506,-0.001954599116637291,82.25140724918913
1.39,0.1149691706621561,-0.04190542045517828,82.99240293288928
1.4,0.09523158361018785,0.01716197254683803,84.18189600409214
1.41,0.13006796997380002,-0.0251136371349761,85.78620484081134
1.42,0.14107372127927542,0.048998246037521176,87.53676282562927
1.43,0.10218976522067436,-0.0002221135359815103,89.02850413623612
1.44,0.07435703877872833,0.024684217632078512,89.9822258535344
1.45,0.05639310586276645,-0.036693156144145506,90.26320148957859
1.46,0.02273915558982518,-0.042482915648730205,89.91486260956165
1.47,0.030834294979802942,-0.06795193444127673,89.18538958601475
1.48,0.02387611336931644,-0.0251136371349761,88.56848408858018
1.49,0.036064300765462735,-0.05348493946434769,88.20950890688334
1.5,0.0192373256289921,-0.027423617909183805,87.92941962931248
1.51,-0.00509357085212084,-0.09343576080288868,87.42419529951692
1.52,0.052300057856597915,0.020049448514597664,86.6388816921505
1.53,0.3371307207747481,0.1717529935899692,85.67363731469901
1.54,1.4931893909614602,0.5231958377889803,84.70927929572082
1.55,1.537849092539877,0.4108804264276632,83.82292082239529
1.56,0.6527047220503419,0.1219551388229146,83.1040841005283
1.57,0.0505718820317712,-0.1953414511112056,82.47654230141382
1.58,-0.0039566130726295815,-0.09922552030747338,81.87027310565915
1.59,0.04420491846662015,-0.06333197289286131,81.33136715387724
1.6,0.01518975593400322,-0.03205838702666466,80.83766548423492
1.61,0.019828543674327556,-0.05463992985145154,80.4343723788718
1.62,0.02387611336931644,-0.019901372823943324,80.10907881916133
1.63,0.03315368884996511,-0.05232994907724383,79.86178480510351
1.64,0.0383836946356249,-0.007166863427670066,79.69337669517165
1.65,0.04998066398643575,-0.022788848791702957,79.5249685852398
1.66,0.058712499732928615,0.00673744392477248,79.28919723133521
1.67,0.046524312336782316,-0.017591392049735616,79.00910795376434
1.68,0.061577633337246584,0.013682193816461035,78.72901867619348
1.69,0.08768218395436589,0.00846992950542826,78.50388362396879
1.7,0.09755097748035002,0.048998246037521176,78.26899862853753
1.71,0.13470675771412435,0.03568624144769599,78.05538623646608
1.72,0.15094251480525955,0.07505956759268505,77.78593326057512
1.73,0.21242919152014683,0.07852453875399662,77.47216236101788
1.74,0.2535870631377304,0.1126856005879529,77.20270938512692
1.75,0.30056615858630925,0.10516335550271241,77.0564602370282
1.76,0.33362889081391506,0.1428041960670457,77.02277861504183
1.77,0.32553375142393726,0.08258181267792554,77.34895853322563
1.78,0.29074284337150474,0.08084932709726976,78.93022204963837
1.79,0.23212130026093544,0.02931898674955936,83.09344779884839
1.8,0.14862312093509739,0.01656966978422067,90.0380664373539
1.81,0.08072400234387939,-0.036693156144145506,98.12786022339601
1.82,0.0256497675053228,-0.0343831753699378,105.17441008633396
1.83,-0.009732358592445176,-0.07085421797810179,110.14510840474354
1.84,-0.024831157904089095,-0.0517524538836919,113.09579576244423
1.85,-0.010323576637780631,-0.06912173239744601,114.36328837929973
1.86,-0.03006116368974889,-0.056949910625659246,114.35265207761982
1.87,-0.026013593994760005,-0.08185624179371927,113.44324828398783
1.88,-0.021329327943256017,-0.04827267515331491,111.68205399749
1.89,-0.015553582423440423,-0.08070125140661541,109.51668024715573
1.9,-0.021920545988591472,-0.05869720377538046,107.37346545865461
1.91,-0.002774176981958672,-0.06621944886062094,105.24177333030671
1.92,-0.013234188553278254,-0.0517524538836919,103.04271795798607
1.93,-0.005684788897456295,-0.07722147267623843,100.69741343756672
1.94,-0.011506012728451542,-0.04537039161648984,98.24042774950836
1.95,0.007094616544025456,-0.061584679743140094,95.90664588924224
1.96,0.0018646107583656648,-0.04885017034686683,93.93183921067296
1.97,0.00995975014834343,-0.059852194162484315,92.38337095777325
1.98,-0.00627600694279175,-0.0517524538836919,91.1832415848905
1.99,-0.005684788897456295,-0.08243373698727119,90.09479337964675
2.0,0.009414010414187624,-0.04942766554041876,88.98418621256985
2.01,0.012870362063841052,-0.07027672278454987,87.74948885922738
2.02,9.095662235930072e-05,-0.04537039161648984,86.67256331413687
2.03,0.0030015685378569235,-0.06564195366706901,86.08933943868867
2.04,-0.018464194338938048,-0.05521742504500347,85.53891082675352
2.05,-0.016690540202931682,-0.07491149190203071,84.92200532931895
2.06,-0.015553582423440423,-0.04711768476621105,84.24925924806487
2.07,0.019828543674327556,-0.05637241543210732,83.72187595643618
2.08,0.016917931758829934,-0.04190542045517828,83.59778577017062
2.09,0.05812128168759316,-0.05579492023855539,83.82292082239529
2.1,0.07030946908373946,-0.023958646747872247,84.29357717173116
2.11,0.09755097748035002,-0.038425641724801285,84.83248312351307
2.12,0.09291218974002569,-0.0100543393954297,85.47154758278079
2.13,0.10164402548651855,-0.009476844201877773,86.17886164449455
2.14,0.03374490689530057,0.005567645968603192,86.96417525186096
2.15,0.011733404284349793,-0.04654018957265913,87.70428457708779
2.16,-0.051526926566543854,-0.06679694405417287,88.22103156703658
2.17,-0.03529116947540868,-0.06679694405417287,88.4231212989548
2.18,-0.05439206017086183,-0.04654018957265913,88.40007597864833
2.19,-0.03874752112506211,-0.07143171317165371,88.28839481100931
2.2,-0.04920753269638169,-0.05406243465789961,88.10846404092423
2.21,-0.02655933372891581,-0.05290744427079576,87.72732989739426
2.22,-0.03469995143007323,-0.05290744427079576,87.19994660576556
2.23,-0.010914794683116086,0.050153236424625026,86.54935948634463
2.24,0.7843644329154298,0.2869706884881113,85.80836380264448
2.25,1.7692882181331175,0.524928323369636,85.06825447741767
2.26,1.3099117969074694,0.3402335144164775,84.39462203769027
2.27,0.2849216195405095,-0.06216217493669202,83.74403491826932
2.28,-0.06194145982668379,-0.1438111107634952,83.11560676068153
2.29,0.024467331414651895,-0.07200920836520565,82.5767008088996
2.3,-0.0126429705079428,-0.05116015112107454,82.17340770353648
2.31,-0.008595400812953917,-0.04479289642293791,81.79138720153318
2.32,-0.03006116368974889,-0.02917091105890502,81.38809409617006
2.33,-0.010323576637780631,-0.038425641724801285,80.92807404851412
2.34,-0.02655933372891581,-0.04479289642293791,80.4902129626913
2.35,0.01405279815451196,-0.021633858404599103,80.09755615900809
2.36,-0.010323576637780631,-0.026268627522079955,79.78289890097753
2.37,0.0314255130251384,-0.0193238776303914,79.60385448936577
2.38,0.015780973979338676,-0.007744358621221993,79.57017286737941
2.39,0.04711553038211777,-0.005419570277948852,79.54801390554627
2.4,0.05639310586276645,0.01716197254683803,79.44696903958716
2.41,0.09987037135051219,0.022359429288805372,79.31224255164167
2.42,0.12133613422730716,0.04205349614583262,79.05431223590395
2.43,0.18923525281852516,0.048998246037521176,78.79549556169289
2.44,0.22925616665661747,0.08258181267792554,78.62797381023437
2.45,0.2988379827614825,0.09300634129999108,78.45956570030252
2.46,0.30638738241730445,0.09937359599812771,78.27963493021744
2.47,0.37310406491785153,0.10285337472850471,78.52692894427526
2.48,0.33653950272941263,0.08721658179540638,80.23228264695358
2.49,0.2953816311118291,0.03915121260900755,84.61887073144162
2.5,0.2013779619034918,0.02989648194311129,91.56437572842047
2.51,0.12656614001296695,-0.008321853814773919,99.2836716726125
2.52,0.06621642107757092,-0.02974840625245695,105.79131558376854
2.53,0.041294306551122525,-0.05232994907724383,110.38087975864812
2.54,-0.010323576637780631,-0.04306041084228213,113.24204491054293
2.55,0.010550968193678883,-0.05579492023855539,114.61058239335755
2.56,-0.012051752462607345,-0.05058265592752262,114.81267212527577
2.57,-0.0039566130726295815,-0.05463992985145154,114.16208500585483
2.58,-0.029469945644413433,-0.06333197289286131,112.78202486288698
2.59,9.095662235930072e-05,-0.06852942963482865,111.01994421791584
2.6,-0.008595400812953917,-0.05348493946434769,109.2135456492784
2.61,0.009414010414187624,-0.059274698968932386,107.29546591300196
2.62,-0.0126429705079428,-0.04827267515331491,105.1407284643476
2.63,0.006503398498690001,-0.06273967013024395,102.7174243982756
2.64,-0.002774176981958672,-0.04711768476621105,100.18155280609126
2.65,0.026195507239478607,-0.04654018957265913,97.7804077018524
2.66,0.00764035627818126,-0.03553816575704165,95.71607881747725
2.67,0.02041976171966301,-0.05116015112107454,94.08872466045158
2.68,0.00882279236885217,-0.04479289642293791,92.86554996726234
2.69,0.019828543674327556,-0.05406243465789961,91.9233509101173
2.7,9.095662235930072e-05,-0.044215401229385984,91.16019626458403
2.71,0.027377943330149517,-0.05232994907724383,90.35272369538447
2.72,0.013461580109176507,-0.03553816575704165,89.46636522205894
2.73,0.02387611336931644,-0.0459626943791072,88.49048454292753
2.74,9.095662235930072e-05,-0.05348493946434769,87.48003588333643
2.75,0.021556719499154272,-0.04769517995976298,86.41463299839914
2.76,0.022147937544489724,-0.037848146531249356,85.41570699896127
2.77,0.07435703877872833,-0.03321337741376851,84.65255235342799
2.78,0.07899582651905268,-0.037270651337697434,84.18189600409214
2.79,0.1398912851886045,-0.02974840625245695,84.02412419584019
2.8,0.13584371549361562,-0.0100543393954297,84.0693284779798
2.81,0.14571250901959976,-0.010631834588981627,84.35030411402398
2.82,0.12483796418814024,0.002680170000843558,84.89984636748581
2.83,0.08768218395436589,0.004412655581499338,85.63995569271263
2.84,0.021010979764998466,-0.039580632111905135,86.48199624237188
2.85,0.0035927865831923782,-0.05754221338827661,87.33467309371105
2.86,-0.024239939858753643,-0.05116015112107454,88.13062300275736
2.87,-0.009186618858289372,-0.059852194162484315,88.815778102638
2.88,-0.024239939858753643,-0.0459626943791072,89.33163873411345
2.89,-0.011506012728451542,-0.056949910625659246,89.65693229382393
2.9,-0.023102982079262382,-0.044215401229385984,89.71277287764343
2.91,-0.02019237016376476,-0.07837646306334227,89.52220580587844
2.92,0.011733404284349793,0.01716197254683803,89.08434472005564
2.93,0.4409577051978899,0.19548952680185994,88.4789618827743
2.94,1.5836912302089645,0.5266756165193572,87.87269268701964
2.95,1.5448072741503633,0.409133133277942,87.34530939539094
2.96,0.5378265080105451,0.06463503897061951,86.85160772574864
2.97,-0.014371146332769513,-0.1594330961275281,86.35790605610632
2.98,0.02387611336931644,-0.06852942963482865,85.90940866860359
2.99,0.029697337200311685,-0.04363790603583406,85.52827452507361
3.0,0.008231574323516715,-0.034960670563489726,85.17993564505669
3.01,-0.004547831117965036,-0.041327925261626354,84.85464208534621
3.02,-0.017281758248267137,-0.0251136371349761,84.43982631982986
3.03,0.012870362063841052,-0.020478868017495253,83.89028406636804
3.04,-0.00509357085212084,-0.014111613319358621,83.250333248627
3.05,0.014598537888667766,-0.008899349008325846,82.64406405287234
3.06,0.00995975014834343,-0.008321853814773919,82.16188504338325
3.07,0.02910611915497623,-0.001954599116637291,81.84811414382601
3.08,0.0256497675053228,0.0015251796137397042,81.6460244119078
3.09,0.05521066977209554,0.009624919892532113,81.46609364182271
3.1,0.04943492425227994,0.03626373664124792,81.24184494807136
3.11,0.10682855296099869,0.04436347692004033,80.91655138836089
3.12,0.12133613422730716,0.06348004858351565,80.56909886681728
3.13,0.18573342285769207,0.08084932709726976,80.29964589092631
3.14,0.21879615508529787,0.10168357677233543,80.1427604411477
3.15,0.26809464440403885,0.11210810539440097,80.15339674282761
3.16,0.2762352621051963,0.12080014843581074,80.61341679048356
3.17,0.2826022256703473,0.1011060815787835,82.15036238323002
3.18,0.21010979764998466,0.08431429825858132,85.49459290308724
3.19,0.13006796997380002,0.02931898674955936,90.88010698701316
3.2,0.015780973979338676,-0.0007996087295334372,97.42143252015556
3.21,-0.04861631465104623,-0.03205838702666466,103.52489696747516
3.22,-0.09559541009962505,-0.03611566095059358,108.237664970147
3.23,-0.1014166339306203,-0.040172934874522497,111.47996426557178
3.24,-0.15012390520402583,-0.044215401229385984,113.38740770016832
3.25,-0.14489389941836606,-0.04942766554041876,114.03799481958926
3.26,-0.16635966229516103,-0.04885017034686683,113.48845256612744
3.27,-0.1564908687691769,-0.059274698968932386,111.71573561947638
3.28,-0.17504601973047423,-0.041327925261626354,109.00081961568027
3.29,-0.1698614922559941,-0.04711768476621105,106.12813180363224
3.3,-0.19942239452276683,-0.04190542045517828,103.43537476166928
3.31,-0.17390906195098296,-0.04769517995976298,100.94470745162454
3.32,-0.1947836067824425,-0.03553816575704165,98.5541986490656
3.33,-0.19132725513278906,-0.04885017034686683,96.18673516681311
3.34,-0.2226163332243885,-0.04479289642293791,93.96552083265932
3.35,-0.2139299757890753,-0.037848146531249356,92.01287311592318
3.36,-0.24640148997134564,-0.040172934874522497,90.50960914516308
3.37,-0.2487208838415078,-0.05116015112107454,89.42116093991933
3.38,-0.26673029506864937,-0.037848146531249356,88.64736999270615
3.39,-0.2562702834973298,-0.03379087260732044,88.00741917496512
3.4,-0.2876048399001089,-0.0459626943791072,87.33467309371105
3.41,-0.28296605215978454,-0.04885017034686683,86.44831462038552
3.42,-0.30907060277690385,-0.0343831753699378,85.24729888902942
3.43,-0.3084793847315684,-0.0343831753699378,83.74403491826932
3.44,-0.3363121111735144,-0.0343831753699378,82.72294995699832
3.45,-0.33690332921884986,-0.040172934874522497,82.2744525694956
3.46,-0.3537303043553205,-0.03553816575704165,82.20708932552286
3.47,-0.35777787405030936,-0.04711768476621105,82.43133801927422
3.48,-0.3856106004922554,-0.039580632111905135,82.70079099516518
3.49,-0.37460484918678,-0.039580632111905135,82.98088027273604
3.5,-0.4059394055895591,-0.042482915648730205,83.250333248627
3.51,-0.40998697528454797,-0.05754221338827661,83.66514901414335
3.52,-0.4181275929857054,-0.02917091105890502,84.22621392775841
3.53,-0.4215839446353588,-0.0517524538836919,84.96720961145856
3.54,-0.4372739619923382,-0.026268627522079955,85.81988646279771
3.55,-0.4360915259016673,-0.04363790603583406,86.61672273031736
3.56,-0.4535097190834734,-0.0343831753699378,87.16626498377919
3.57,-0.4111694113752189,-0.030325901446008875,87.44635426135005
3.58,-0.4059394055895591,-0.011801632545150915,87.50308120364289
3.59,-0.39666183010891043,-0.01874638243683947,87.44635426135005
3.6,-0.42799638651168953,-0.0100543393954297,87.28946881157144
3.61,-0.416353938849699,0.014837184203564889,87.05369745766684
3.62,-0.4181275929857054,0.022359429288805372,86.76208551994274
3.63,-0.4494166710773049,0.024684217632078512,86.36942871625953
3.64,-0.519635183538685,0.0015251796137397042,85.88724970677045
3.65,-0.5283215409739982,-0.037848146531249356,85.3820253769749
3.66,-0.5863518660392321,-0.04654018957265913,84.8440057836663
3.67,-0.5868976057733879,-0.038425641724801285,84.28294087005125
3.68,-0.6031788411757028,-0.04363790603583406,83.71035329628296
3.69,-0.6072264108706916,-0.05232994907724383,83.16081104282112
3.7,-0.6211427740916646,-0.04363790603583406,82.61038243088598
3.71,-0.6170952043966758,-0.04769517995976298,82.10604445956375
3.72,-0.5915363935137122,-0.019901372823943324,81.6566607135877
3.73,-0.5764830725132479,0.09995109119167964,81.23032228791813
3.74,0.4490983228990473,0.38539660006605125,80.86071080454138
3.75,1.146326311594267,0.5376776403349748,80.4902129626913
3.76,0.47865922516582005,0.3008601882714884,80.1427604411477
3.77,-0.4621960765187866,-0.11253752489729855,79.83962584327037
3.78,-0.6611636879297569,-0.09922552030747338,79.58169552753264
3.79,-0.6043157989551939,-0.03379087260732044,79.36808313546119
3.8,-0.6658024756700812,-0.022788848791702957,79.16599340354297
3.81,-0.6507036763584373,-0.015844098900014404,78.98694899193121
3.82,-0.6739430933712387,-0.009476844201877773,78.82917718367926
3.83,-0.6663936937154167,-0.015266603706462475,78.72901867619348
3.84,-0.6773994450208921,-0.001954599116637291,78.594292188248
3.85,-0.6658024756700812,-0.005419570277948852,78.42588407831614
3.86,-0.671032481455741,0.013682193816461035,78.22379434639792
3.87,-0.6489755005336106,0.017739467740389956,78.03322727463294
3.88,-0.653614288273935,0.026416703212734295,77.86481916470109
3.89,-0.6344679192673022,0.03336145310442285,77.66272943278287
3.9,-0.6339221795331463,0.03857371741545562,77.34895853322563
3.91,-0.6054982350458649,0.049575741231073105,76.94477906938918
3.92,-0.5851694299485611,0.06173275543379443,76.56275856738588
3.93,-0.5393272922794736,0.08663908660185446,76.26051032798188
3.94,-0.4796142697005927,0.11674287451188183,75.96801203178445
3.95,-0.42972456233651624,0.1312246770578763,75.75528599818632
3.96,-0.40302879367406147,0.1468466624219092,75.87848982597858
3.97,-0.3781066791476131,0.1358446386062917,77.12382348100094
3.98,-0.4042112297647324,0.11674287451188183,81.00607359416676
3.99,-0.4482797132978136,0.08837157218251024,87.94005593099237
4.0,-0.533551546759658,0.047843255650417325,96.48986976469044
4.01,-0.6089545866955183,0.017739467740389956,104.35541485698118
4.02,-0.7005933837225138,-0.011801632545150915,110.15574470642345
4.03,-0.7261521946054773,-0.03148089183311273,113.95999527393661
4.04,-0.749346133307099,-0.041327925261626354,116.00216519647863
4.05,-0.7498918730412548,-0.037270651337697434,116.59691173208006
4.06,-0.7551218788269146,-0.040750430068074425,116.10321006243774
4.07,-0.7510743091319256,-0.05058265592752262,114.7337862211498
4.08,-0.7649906723528987,-0.04190542045517828,112.5568898106623
4.09,-0.75571309687225,-0.056949910625659246,110.21247164871627
4.1,-0.7516655271772611,-0.03263588222021658,107.97973465440927
4.11,-0.7429336914307683,-0.04363790603583406,105.71331603811589
4.12,-0.7487549152617635,-0.041327925261626354,103.36801151769654
4.13,-0.7475724791710926,-0.039580632111905135,100.97838907361091
4.14,-0.7406142975606061,-0.036693156144145506,98.71197045731753
4.15,-0.7156921830341577,-0.03611566095059358,96.65827787462229
4.16,-0.7255609765601418,-0.03205838702666466,94.90771988980437
4.17,-0.7226503646446442,-0.03263588222021658,93.46029650286377
4.18,-0.7406142975606061,-0.039003136918353214,92.32753037395375
4.19,-0.7116446133391688,-0.02857860829628766,91.37380865665548
4.2,-0.7313367220799575,-0.04363790603583406,90.47592752317672
4.21,-0.7070058255988445,-0.037848146531249356,89.57804638969796
4.22,-0.7145097469434868,-0.03553816575704165,88.95050459058348
4.23,-0.7058233895081736,-0.03379087260732044,88.96114089226339
4.24,-0.702912777592676,-0.04306041084228213,88.62432467239968
4.25,-0.6913158082418651,-0.039580632111905135,87.5589217874624
4.26,-0.7145097469434868,-0.04827267515331491,86.40311033824591
4.27,-0.7017758198131847,-0.039580632111905135,85.70731893668537
4.28,-0.7005933837225138,-0.039580632111905135,85.62931939103272
4.29,-0.6797188388910542,-0.038425641724801285,86.0104535345627
4.3,-0.6773994450208921,-0.039580632111905135,86.75056285978953
4.31,-0.671032481455741,-0.03611566095059358,87.46939958165652
4.32,-0.6658024756700812,-0.04479289642293791,88.15366832306383
4.33,-0.6507036763584373,-0.02857860829628766,88.80425544248477
4.34,-0.6507036763584373,-0.037270651337697434,89.47788788221217
4.35,-0.6455191488839572,-0.03553816575704165,90.13911130331302
4.36,-0.6501579366242816,-0.04190542045517828,90.72322153723454
4.37,-0.6385609672734707,-0.040172934874522497,91.17171892473726
4.38,-0.6350591373126376,-0.02684612271563188,91.39596761848861
4.39,-0.6234621679618267,-0.04306041084228213,91.36228599650225
4.4,-0.5683424548120906,-0.03611566095059358,91.12651464259766
4.41,-0.5190439654933495,-0.021056363211047178,90.76753946090082
4.42,-0.5190439654933495,-0.024536141941424172,90.33056473355133
4.43,-0.4993063784413813,-0.021633858404599103,89.80318144192265
4.44,-0.5033994264475499,0.00673744392477248,89.18538958601475
4.45,-0.4482797132978136,0.02989648194311129,88.5348024665938
4.46,-0.4859812332657437,0.024106722438526587,87.88421534717287
4.47,-0.516133353577852,0.00673744392477248,87.28946881157144
4.48,-0.5254109290585006,-0.041327925261626354,86.77360818009598
4.49,-0.5544260915911176,-0.04942766554041876,86.26838385030042
4.5,-0.5556085276817885,-0.04537039161648984,85.83052276447762
4.51,-0.5468766919352955,-0.04306041084228213,85.39354803712813
4.52,-0.5364621586751557,-0.05232994907724383,84.92200532931895
4.53,-0.5091751719673654,-0.04537039161648984,84.43982631982986
4.54,-0.5202264015840204,-0.05000516073397069,84.02412419584019
4.55,-0.49002880296073265,-0.04479289642293791,83.65451271246344
4.56,-0.4790230516552572,0.07331227444296384,83.29553753076661
4.57,0.2953816311118291,0.307804938163177,82.92503968891654
4.58,1.2681172289333706,0.6291588020212261,82.5767008088996
4.59,0.8475792854551437,0.38712908564670706,82.2744525694956
4.6,-0.14780451133386366,-0.06564195366706901,82.00499959360464
4.61,-0.4865724513110792,-0.1606028940836974,81.75770557954681
4.62,-0.3954793940182395,-0.05406243465789961,81.48913896212918
4.63,-0.388521212407753,-0.030903396639560803,81.21968598623822
4.64,-0.40130061784923476,-0.023381151554320318,80.91655138836089
4.65,-0.3972530481542459,-0.02684612271563188,80.57973516849718
4.66,-0.3937512181934128,-0.010631834588981627,80.23228264695358
4.67,-0.3705572794917911,-0.00658936823411814,79.92914804907625
4.68,-0.3641903159266401,-0.0025320943101892176,79.69337669517165
4.69,-0.3154375663420549,0.014837184203564889,79.43544637943393
4.7,-0.38911243045308846,0.012527203429357182,79.1775160636962
4.71,-0.2823748341144491,0.03162896752376707,78.95326736994484
4.72,-0.30211242116641734,0.02526171282563044,78.73965497787339
4.73,-0.2562702834973298,0.03626373664124792,78.50388362396879
4.74,-0.25104027771167,0.0437859817264884,78.21227168624469
4.75,-0.20060483061343773,0.06231025062734636,77.90913708836736
4.76,-0.1425745055482039,0.09242884610643916,77.6290478107965
4.77,-0.09850602201512268,0.11616537931832989,77.41543541872504
4.78,-0.04165813304055973,0.13237966744498014,77.28159528925289
4.79,0.004729744362683638,0.13990191253022063,77.31527691123927
4.8,0.041294306551122525,0.15205892673294197,78.05538623646608
4.81,0.036064300765462735,0.13468964821918786,80.68078003445629
4.82,0.01405279815451196,0.10285337472850471,86.3020654722868
4.83,-0.07240147139800338,0.06057776504669058,94.3360186745094
4.84,-0.1704072319901499,0.02526171282563044,102.68374277628924
4.85,-0.23421330257519934,0.003257665194395485,109.40411272104339
4.86,-0.26381968315315174,-0.012379127738702842,114.00431319760288
4.87,-0.29861059120558425,-0.020478868017495253,116.76443348353858
4.88,-0.31430060856256364,-0.041327925261626354,117.90960863107517
4.89,-0.3380857653095208,-0.05637241543210732,117.81920006679597
4.9,-0.30556877281607076,-0.040750430068074425,116.82116042583142
4.91,-0.2962911973354221,-0.04769517995976298,114.88003536924852
4.92,-0.2736884766791359,-0.02684612271563188,112.47889026500965
4.93,-0.2876048399001089,-0.05406243465789961,110.15574470642345
4.94,-0.3015212031210819,-0.04363790603583406,107.84500816646378
4.95,-0.3096618208222393,-0.042482915648730205,105.46602202405806
4.96,-0.27600787054929804,-0.036693156144145506,102.97535471401333
4.97,-0.2956999792900866,-0.03263588222021658,100.45100578198222
4.98,-0.24931210188684327,-0.027423617909183805,98.06049697942328
4.99,-0.2632284651078163,-0.026268627522079955,95.99616809504812
5.0,-0.2522227138023409,-0.03611566095059358,94.35817763634253
5.01,-0.2591808954128274,-0.03205838702666466,93.13500294315331
5.02,-0.2522227138023409,-0.018168887243287545,92.17064492417514
5.03,-0.2591808954128274,-0.03263588222021658,91.32860437451588
5.04,-0.2893330157249356,-0.03263588222021658,90.38640531737084
5.05,-0.2748254344586271,-0.037270651337697434,89.28643445197386
5.06,-0.24990331993217874,-0.030325901446008875,88.10846404092423
5.07,-0.2661390770233139,-0.02974840625245695,87.03153849583371
5.08,-0.25513332571783853,-0.037848146531249356,86.25774754862053
5.09,-0.26727603480280515,-0.05463992985145154,85.85356808478409
5.1,-0.2609090712376541,-0.03379087260732044,85.7746821806581
5.11,-0.2713690828089737,-0.05348493946434769,85.97677191257633
5.12,-0.2562702834973298,-0.01642159409356633,86.32422443411994
5.13,-0.27773604637412475,-0.037848146531249356,86.8294487639155
5.14,-0.25686150154266524,-0.0459626943791072,87.52524016547603
5.15,-0.2736884766791359,-0.059274698968932386,88.35575805498205
5.16,-0.2644109011984872,-0.037848146531249356,89.27579815029395
5.17,-0.27427969472447133,-0.05579492023855539,90.10542968132664
5.18,-0.25858967736749194,-0.042482915648730205,90.72322153723454
5.19,-0.2632284651078163,-0.05579492023855539,91.16019626458403
5.2,-0.23944330836085914,-0.028001113102735734,91.49701248444772
5.21,-0.25335967158183215,-0.05579492023855539,91.67694325453282
5.22,-0.1965117826072692,-0.0193238776303914,91.67694325453282
5.23,-0.19419238873710704,-0.0100543393954297,91.48548982429449
5.24,-0.20233300643826446,-0.008321853814773919,91.11587834091775
5.25,-0.17973028578197822,0.0379962222219037,90.55481342730269
5.26,-0.13502510589238192,0.04032101056517684,89.88118098757529
5.27,-0.1959660428731134,0.04668826526331347,89.19691224616798
5.28,-0.2539508896271676,-0.010631834588981627,88.52416616491391
5.29,-0.2591808954128274,-0.04363790603583406,87.87269268701964
5.3,-0.27196030085430917,-0.02857860829628766,87.28946881157144
5.31,-0.27891848246479567,-0.05406243465789961,86.6388816921505
5.32,-0.2412169624968655,-0.024536141941424172,85.80836380264448
5.33,-0.3009299850757464,-0.08706850610475204,84.85464208534621
5.34,-0.2644109011984872,-0.04306041084228213,84.02412419584019
5.35,-0.29688241538075755,-0.08591351571764819,83.50826356436474
5.36,-0.25513332571783853,-0.06333197289286131,83.13776572251466
5.37,-0.24235392027635677,0.03626373664124792,82.6671093731788
5.38,0.33945011464491026,0.27248888594211684,81.9934769334514
5.39,1.3238281601284423,0.6418933114174994,81.17448170409861
5.4,1.0813378049185467,0.5179835734779475,80.29964589092631
5.41,0.132933103578118,0.0015251796137397042,79.4239237192807
5.42,-0.2591808954128274,-0.1762248794477303,78.69533705420712
5.43,-0.22379876931505943,-0.07837646306334227,78.21227168624469
5.44,-0.22379876931505943,-0.06448696327996516,78.04386357631284
5.45,-0.22552694513988614,-0.037270651337697434,78.10059051860569
5.46,-0.19942239452276683,-0.018168887243287545,78.14490844227196
5.47,-0.2098824060940864,-0.00658936823411814,78.08906785845245
5.48,-0.21743180574990836,-0.0251136371349761,77.88697812653423
5.49,-0.22029693935422634,-0.021056363211047178,77.65120677262964
5.5,-0.187825425171956,-0.020478868017495253,77.47216236101788
5.51,-0.20578935808791787,0.01656966978422067,77.41543541872504
5.52,-0.1686790561653232,-0.001377103923085364,77.48279866269779
5.53,-0.17450027999631842,0.01310469862290911,77.55016190667052
5.54,-0.1454851174637015,0.00673744392477248,77.40479911704514
5.55,-0.13097753619739302,0.06521253416417143,77.06798289718144
5.56,-0.09154784040463618,0.06290255338996373,76.60796284952549
5.57,-0.0822702649239875,0.09937359599812771,76.20378338568905
5.58,-0.015553582423440423,0.09416133168709494,75.96801203178445
5.59,0.037246736856133646,0.13990191253022063,75.90153514628504
5.6,0.09641401970085876,0.1416343981108764,75.87848982597858
5.61,0.10510037713617199,0.15727119104397475,76.01321631392406
5.62,0.10860220709700506,0.13411215302563592,76.92173374908272
5.63,0.05639310586276645,0.0912738557193353,79.87330746525674
5.64,-0.010323576637780631,0.08431429825858132,85.70731893668537
5.65,-0.11010299136593352,-0.012379127738702842,93.31493371323839
5.66,-0.12288239680741526,0.01656966978422067,100.56268694962124
5.67,-0.23539573866587027,-0.05290744427079576,106.1059728417991
5.68,-0.2139299757890753,-0.030325901446008875,109.7967695247266
5.69,-0.2644109011984872,-0.07491149190203071,111.76093990161597
5.7,-0.2359869567112057,-0.040750430068074425,112.3104821550778
5.71,-0.26031785319231865,-0.05579492023855539,111.89566638956146
5.72,-0.2562702834973298,-0.03148089183311273,110.7168096200385
5.73,-0.2574527195880007,-0.06333197289286131,109.00081961568027
5.74,-0.2400345264061946,-0.01874638243683947,107.19442104704285
5.75,-0.2632284651078163,-0.05058265592752262,105.34281819626582
5.76,-0.23189390870503718,-0.061007184549588166,103.2554439915842
5.77,-0.25513332571783853,-0.04769517995976298,101.00054803544406
5.78,-0.20060483061343773,-0.041327925261626354,98.65524351502471
5.79,-0.2029242244835999,-0.05406243465789961,96.40034755888456
5.8,-0.18668846739246472,-0.037848146531249356,94.3918592583289
5.81,-0.21047362413942186,-0.059274698968932386,92.70866451748373
5.82,-0.18723420712662053,-0.04363790603583406,91.36228599650225
5.83,-0.201741788392929,-0.04654018957265913,90.40856427920397
5.84,-0.18668846739246472,-0.04827267515331491,89.65693229382393
5.85,-0.2220705934902327,-0.05463992985145154,88.95050459058348
5.86,-0.20115057034759354,0.002102674807291631,88.09782773924432
5.87,-0.21743180574990836,-0.06969922759099793,87.00937953400057
5.88,-0.18086724356146947,-0.012379127738702842,85.80836380264448
5.89,-0.2098824060940864,-0.03148089183311273,84.69775663556759
5.9,-0.1756372377758097,-0.0343831753699378,83.92307932988108
5.91,-0.215658151613902,-0.05290744427079576,83.59778577017062
5.92,-0.15826452290518325,-0.04190542045517828,83.33985545443288
5.93,-0.1976942186979401,-0.05579492023855539,83.46305928222513
5.94,-0.13679876002838828,-0.022788848791702957,84.18189600409214
5.95,-0.19710300065260467,-0.06216217493669202,85.20298096536314
5.96,-0.15999269873000996,-0.02974840625245695,86.25774754862053
5.97,-0.19246421291228033,-0.04363790603583406,87.16626498377919
5.98,-0.15535391098968562,-0.037270651337697434,87.92941962931248
5.99,-0.12169996071674437,-0.038425641724801285,88.56848408858018
6.0,-0.09850602201512268,-0.017591392049735616,89.118026342042
6.01,-0.08750027070964729,-0.007744358621221993,89.52220580587844
6.02,-0.09618662814496051,-0.008321853814773919,89.76949981993627
6.03,-0.049753272430537496,0.03626373664124792,89.7464544996298
6.04,-0.07763147718366316,0.02931898674955936,89.52220580587844
6.05,-0.11533299715159331,0.034531251060592134,89.14107166234847
6.06,-0.14316572359353932,0.0009476844201877773,88.74841485866526
6.07,-0.1976942186979401,-0.058119708581828536,88.36639435666196
6.08,-0.17272662586031207,-0.058119708581828536,87.96310125129884
6.09,-0.1785478496913073,-0.037848146531249356,87.50308120364289
6.1,-0.16112965650950123,-0.04711768476621105,86.96417525186096
6.11,-0.16754209838583192,-0.037270651337697434,86.36942871625953
6.12,-0.1564908687691769,-0.037270651337697434,85.80836380264448
6.13,-0.1263387484570687,-0.0025320943101892176,85.29250317116902
6.14,-0.09850602201512268,0.14569167203480535,84.85464208534621
6.15,0.8806420176827495,0.4010333929991496,84.42830365967663
6.16,1.5778700063779691,0.5996325093047506,83.90092036804795
6.17,0.8475792854551437,0.30664994777607313,83.21665162664064
6.18,0.10046158939584765,-0.08416622256792698,82.45349698110735
6.19,-0.1686790561653232,-0.11774978920833133,81.67970603389416
6.2,-0.07644904109299225,-0.020478868017495253,80.86071080454138
6.21,-0.11069420941126898,0.004990150775051265,80.03019291503536
6.22,-0.10082541588528485,-0.013534118125806694,79.26703826950208
6.23,-0.09445845232013379,0.02931898674955936,78.62797381023437
6.24,-0.0758578230476568,0.024106722438526587,78.19011272441156
6.25,-0.06717146561234358,-0.0002221135359815103,77.99954565264657
6.26,-0.0688996414371703,0.04089850575872877,78.08906785845245
6.27,-0.04688813882621952,0.04263099133938455,78.27963493021744
6.28,-0.04338630886538644,0.031051472330215144,78.34699817419018
6.29,-0.03297177560524651,0.04611077006976154,78.21227168624469
6.3,-0.010323576637780631,0.05942277465958672,77.94281871035373
6.31,-0.015553582423440423,0.06173275543379443,77.5838435286569
6.32,0.0186915858948363,0.09242884610643916,77.15750510298732
6.33,0.04070308850578707,0.09706361522392001,76.7648482993041
6.34,0.09464036556485239,0.12542010998422615,76.4173957777605
6.35,0.14571250901959976,0.1468466624219092,76.11426117988317
6.36,0.21183797347481137,0.17696525790100198,75.91217144796495
6.37,0.24835705735207061,0.18448750298624247,75.77744496001947
6.38,0.27332465018969865,0.1833325125991386,75.82264924215907
6.39,0.2234349428256222,0.13990191253022063,76.52907694539951
6.4,0.19096342864335186,0.11963035047964146,78.95326736994484
6.41,0.11787978257765373,0.08258181267792554,84.09148743981294
6.42,0.03956613072629581,0.028149188793390074,91.54221676658733
6.43,-0.014371146332769513,0.03857371741545562,99.46360244269758
6.44,-0.042795090820050986,-0.021056363211047178,105.91540577003411
6.45,-0.07121903530733247,-0.01295662293225477,110.3241528163553
6.46,-0.05962206595652162,-0.021056363211047178,112.77050220273375
6.47,-0.08631783461897638,-0.037270651337697434,113.54429314994694
6.48,-0.07531208331350099,-0.02684612271563188,113.084273102291
6.49,-0.07353842917749463,-0.01642159409356633,111.69357665764323
6.5,-0.07181025335266791,-0.011801632545150915,109.5051575870025
6.51,-0.07299268944333882,-0.023958646747872247,107.19442104704285
6.52,-0.07240147139800338,-0.0251136371349761,105.00600197640212
6.53,-0.06949085948250575,-0.012379127738702842,102.87430984805422
6.54,-0.045114484690213154,-0.011801632545150915,100.69741343756672
6.55,-0.060213284001857076,0.014837184203564889,98.3529952756207
6.56,-0.05789389013169491,-0.030325901446008875,95.89512322908901
6.57,-0.07353842917749463,-0.006011873040566213,93.50550078500338
6.58,-0.048025096605710776,-0.010631834588981627,91.34012703466911
6.59,-0.051526926566543854,0.018316962933941885,89.50004684404531
6.6,-0.05557449626153274,-0.004842075084396925,88.07478241893786
6.61,-0.05325510239137057,-0.005419570277948852,87.03153849583371
6.62,-0.06080450204719253,0.0009476844201877773,86.15670268266142
6.63,-0.048025096605710776,0.01716197254683803,85.16929934337678
6.64,-0.05730267208635945,0.004412655581499338,83.90092036804795
6.65,-0.0509357085212084,0.003257665194395485,82.46501964126058
6.66,-0.1071923794504359,-0.019901372823943324,81.28704923021095
6.67,-0.03529116947540868,0.018316962933941885,80.63646211079002
6.68,-0.007412964722283009,-0.011209329782533554,80.65862107262316
6.69,-0.04456874495605735,0.044940972113592256,81.3092081920441
6.7,-0.03410873338473777,0.011949708235805255,82.48717860309372
6.71,0.04711553038211777,0.048998246037521176,83.82292082239529
6.72,0.09232097169469022,0.022359429288805372,85.01152753512483
6.73,0.07435703877872833,0.05942277465958672,86.0104535345627
6.74,0.021010979764998466,0.034531251060592134,86.86313038590185
6.75,-0.03410873338473777,0.01889445812749381,87.62628503143515
6.76,-0.08513539852830547,-0.021633858404599103,88.28839481100931
6.77,-0.07353842917749463,0.013682193816461035,88.83793706447113
6.78,-0.07353842917749463,-0.017591392049735616,89.28643445197386
6.79,-0.08340722270347876,0.0009476844201877773,89.58956904985119
6.8,-0.08690905266431184,-0.02917091105890502,89.71277287764343
6.81,-0.07531208331350099,0.005567645968603192,89.60109171000443
6.82,-0.11997178489191765,-0.05348493946434769,89.3537976959466
6.83,-0.056165714306868196,0.053633015155002024,89.01786783455623
6.84,0.2025603979941627,0.22386082913123154,88.59152940888664
6.85,1.339472699174242,0.5834182211781004,87.96310125129884
6.86,1.378356655232843,0.4988818093835376,87.19994660576556
6.87,0.5221819689647454,0.18854477691017138,86.43679196023228
6.88,-0.06371511396269015,-0.14496610115059907,85.73036425699183
6.89,-0.10546420362560918,-0.05869720377538046,85.0452091571112
6.9,-0.0828160046581433,-0.02684612271563188,84.33878145387075
6.91,-0.07121903530733247,0.022359429288805372,83.67667167429659
6.92,-0.058485108177030364,-0.0025320943101892176,83.03672085655555
6.93,-0.06949085948250575,0.028149188793390074,82.41981535912099
6.94,-0.09386723427479834,0.018316962933941885,81.85875044550592
6.95,-0.04743387856037532,0.0472657604568654,81.32073085219733
6.96,-0.04743387856037532,0.0472657604568654,80.80398386224854
6.97,-0.03410873338473777,0.06521253416417143,80.28812323077308
6.98,-0.03761056334557085,0.04551846730714418,79.78289890097753
6.99,-0.003365395027294127,0.07215728405585999,79.26703826950208
7.0,0.004184004628527833,0.053055519961450096,78.71749601604024
7.01,0.019828543674327556,0.10343086992205663,78.16795376257842
7.02,0.01518975593400322,0.09764111041747194,77.61752515064326
7.03,0.10396341935668073,0.13411215302563592,77.06798289718144
7.04,0.11378673457148519,0.13063237429525892,76.54059960555274
7.05,0.20315161603949816,0.1908547576843791,76.15946546202277
7.06,0.21010979764998466,0.16537093132276715,75.95737573010454
7.07,0.2657752505338767,0.21053401697234092,75.95737573010454
7.08,0.25536071727373677,0.1676957196660403,76.36155519394099
7.09,0.23621434826710397,0.15727119104397475,77.88697812653423
7.1,0.16658705385105926,0.08721658179540638,81.7018649957273
7.11,0.032016731070473856,0.07331227444296384,88.01894183511835
7.12,-0.07876843496315442,0.03684123183479984,95.24453610966806
7.13,-0.0439775269107219,0.022951732051422733,101.5164086669195
7.14,-0.07817721691781897,-0.011209329782533554,106.12813180363224
7.15,-0.13620754198305282,-0.007744358621221993,109.01145591736018
7.16,-0.05266388434603512,-0.01642159409356633,110.38087975864812
7.17,-0.14780451133386366,0.004412655581499338,110.660969036219
7.18,-0.14084632972337716,-0.02684612271563188,110.1787900267299
7.19,-0.05730267208635945,0.03336145310442285,108.96713799369391
7.2,-0.07817721691781897,-0.011209329782533554,107.23873897070912
7.21,-0.10082541588528485,0.028741491556007435,105.39865878008533
7.22,-0.07531208331350099,-0.01874638243683947,103.44689742182251
7.23,-0.0631238959173547,0.025839208019182366,101.30368263332139
7.24,-0.08049661078798113,-0.0251136371349761,99.00358239504163
7.25,-0.06776268365767904,0.022359429288805372,96.72564111859502
7.26,-0.056165714306868196,-0.00658936823411814,94.59394899024713
7.27,-0.05384632043670603,0.03278395791087092,92.75386879962333
7.28,-0.054983278216197286,0.002102674807291631,91.19387788657039
7.29,-0.07181025335266791,0.030473977136663215,89.85902202574215
7.3,-0.058485108177030364,0.024684217632078512,88.72536953835879
7.31,-0.05207266630069966,0.03857371741545562,87.6599666534215
7.32,-0.06080450204719253,-0.005419570277948852,86.14518002250819
7.33,-0.04338630886538644,0.03568624144769599,84.5071895638026
7.34,-0.04456874495605735,0.004412655581499338,83.26185590878023
7.35,-0.045114484690213154,0.03741872702835177,82.36397477530147
7.36,-0.015553582423440423,0.007314939118324406,81.83659148367279
7.37,-0.006867224988127204,0.04611077006976154,81.58929746961496
7.38,0.012279144018505597,0.027571693599838146,81.56713850778182
7.39,0.05461945172676008,0.06000026985313865,81.67970603389416
7.4,0.01405279815451196,0.021204438901701518,81.83659148367279
7.41,0.06739885716824183,0.08027183190371782,82.03868121559101
7.42,0.02910611915497623,0.07331227444296384,82.53238288523333
7.43,-0.04688813882621952,0.06694501974482721,83.37353707641925
7.44,-0.08631783461897638,0.0015251796137397042,84.49566690364938
7.45,-0.1205630029372531,0.01889445812749381,85.62931939103272
7.46,-0.13215997228806395,-0.01295662293225477,86.60520007016413
7.47,-0.14666755355437242,0.030473977136663215,87.36835471569741
7.48,-0.15303451711952346,-0.012379127738702842,87.86205638533973
7.49,-0.11878934880124674,0.03741872702835177,88.17582728489697
7.5,-0.1425745055482039,-0.0193238776303914,88.32207643299569
7.51,-0.09445845232013379,0.06173275543379443,88.31055377284245
7.52,-0.08340722270347876,0.14800165280901303,88.07478241893786
7.53,0.9050183924750421,0.4728204878283737,87.62628503143515
7.54,1.5744136547283158,0.6193117685927125,87.08737907965322
7.55,0.9119765740855287,0.4016108881927015,86.45895092206543
7.56,0.0447961365119556,-0.07200920836520565,85.79684114249125
7.57,-0.15012390520402583,-0.05579492023855539,85.12409506123717
7.58,-0.09791480396978722,-0.01874638243683947,84.43982631982986
7.59,-0.10373602780078246,0.031051472330215144,83.74403491826932
7.6,-0.11533299715159331,0.01716197254683803,83.12712942083475
7.61,-0.1141505610609224,0.04436347692004033,82.61038243088598
7.62,-0.09036540431396527,0.03510874625414406,82.18404400521639
7.63,-0.05730267208635945,0.06926980808810035,81.75770557954681
7.64,-0.06485207174218141,0.03393894829797477,81.38809409617006
7.65,-0.056165714306868196,0.07100229366875613,80.99543729248686
7.66,-0.04570570273554861,0.04842075084396925,80.56909886681728
7.67,-0.03238055755991105,0.08721658179540638,80.13123778099447
7.68,-0.013234188553278254,0.055365500735657804,79.7607399391444
7.69,0.012870362063841052,0.11558788412477797,79.4239237192807
7.7,0.0314255130251384,0.0953163220741988,79.06494853758386
7.71,0.07899582651905268,0.1485939555716304,78.65013277206751
7.72,0.10973916487649632,0.1312246770578763,78.17859006425833
7.73,0.17240827768205452,0.17985273386876163,77.70793371492248
7.74,0.21706797926047117,0.1647934361292152,77.21423204528016
7.75,0.256497675053228,0.2047442574677562,76.82157524159695
7.76,0.2651840324885412,0.17637295513838464,76.98909699305547
7.77,0.25417828118306585,0.18912227210372332,79.03126691559748
7.78,0.182231592896859,0.11153061020084905,84.52934852563574
7.79,0.09291218974002569,0.11210810539440097,92.47289316357913
7.8,0.013461580109176507,0.04320848653293647,100.248916050064
7.81,-0.0126429705079428,0.06231025062734636,106.41974374135634
7.82,-0.06658024756700813,0.002102674807291631,110.59360579224625
7.83,-0.0810878288333166,0.027571693599838146,112.893706030526
7.84,-0.11878934880124674,-0.006011873040566213,113.79158716400477
7.85,-0.08572661657364093,0.02352922724497466,113.82526878599113
7.86,-0.09213905844997163,-0.01295662293225477,113.2305222503897
7.87,-0.09964297979461394,0.02526171282563044,112.00734755720048
7.88,-0.11010299136593352,-0.017591392049735616,110.3693570984949
7.89,-0.08690905266431184,0.028149188793390074,108.60816281199706
7.9,-0.10951177332059807,-0.017591392049735616,106.6891967172473
7.91,-0.09327601622946288,0.024106722438526587,104.5575045888994
7.92,-0.09677784619029596,-0.014689108512910548,102.31324493443915
7.93,-0.09095662235930072,0.031051472330215144,100.08050794013215
7.94,-0.10314480975544701,-0.007744358621221993,98.0268153574369
7.95,-0.10837481554110681,0.028149188793390074,96.25409841078584
7.96,-0.1019623736647761,-0.006011873040566213,94.78451606201212
7.97,-0.09618662814496051,0.034531251060592134,93.57286402897611
7.98,-0.09036540431396527,-0.003687084697293071,92.60761965152462
7.99,-0.11646995493108457,0.01889445812749381,91.80014708232505
8.0,-0.10778359749577135,-0.014111613319358621,90.98115185297227
8.01,-0.10373602780078246,0.04089850575872877,89.99374851368763
8.02,-0.11646995493108457,-0.014111613319358621,88.66952895453929
8.03,-0.11646995493108457,0.031051472330215144,86.91897096972137
8.04,-0.11938056684658219,-0.010631834588981627,85.53891082675352
8.05,-0.09154784040463618,0.03857371741545562,84.86616474549945
8.06,-0.07299268944333882,0.0038351603879474114,84.7535972193871
8.07,-0.06485207174218141,0.027571693599838146,84.92200532931895
8.08,-0.024239939858753643,0.006159948731220553,85.05673181726443
8.09,0.012279144018505597,0.06521253416417143,85.05673181726443
8.1,-0.004547831117965036,0.015992174590668744,85.0904134392508
8.11,0.0006821746676947554,0.08142682229082168,85.55043348690675
8.12,-0.054983278216197286,0.04147600095228069,86.49263254405179
8.13,-0.10605542167094464,0.03972870780255948,87.61476237128191
8.14,-0.13911815389855045,-0.027423617909183805,88.56848408858018
8.15,-0.15417147489901473,0.0009476844201877773,89.25275282998749
8.16,-0.16576844424982556,-0.028001113102735734,89.63477333199079
8.17,-0.18027602551613403,0.0009476844201877773,89.78013612161618
8.18,-0.1704072319901499,-0.023958646747872247,89.79165878176941
8.19,-0.17390906195098296,0.011949708235805255,89.7464544996298
8.2,-0.18086724356146947,-0.039580632111905135,89.58956904985119
8.21,-0.11646995493108457,0.053633015155002024,89.25275282998749
8.22,0.022147937544489724,0.16596323408538452,88.66952895453929
8.23,1.1515563173799268,0.5643016495146251,87.97373755297875
8.24,1.3737178674925188,0.5822632307909966,87.23362822775194
8.25,0.5726174160629777,0.2904356596494229,86.52631416603816
8.26,-0.14143754776871262,-0.1536433366229434,85.87572704661721
8.27,-0.19187299486694487,-0.04827267515331491,85.30402583132225
8.28,-0.16635966229516103,-0.03321337741376851,84.7429609177072
8.29,-0.17390906195098296,0.025839208019182366,84.19253230577205
8.3,-0.1715896680808208,-0.008321853814773919,83.64299005231021
8.31,-0.17504601973047423,0.028149188793390074,83.12712942083475
8.32,-0.16808783811998773,0.004990150775051265,82.61038243088598
8.33,-0.1564908687691769,0.052478024767898174,82.13972608155012
8.34,-0.152443299074188,0.009624919892532113,81.73554661771368
8.35,-0.15185208102885256,0.05594299592920973,81.38809409617006
8.36,-0.1425745055482039,0.02526171282563044,81.01759625432
8.37,-0.12806692428189542,0.06810001013193107,80.60278048880365
8.38,-0.11123994914542477,0.03972870780255948,80.17555570466074
8.39,-0.09095662235930072,0.09879610080457579,79.78289890097753
8.4,-0.06253267787201924,0.07736954836689276,79.4239237192807
8.41,-0.023102982079262382,0.133534657832084,79.11015281972345
8.42,0.027377943330149517,0.1219551388229146,78.79549556169289
8.43,0.07608521460355505,0.17754275309455392,78.4932473222889
8.44,0.11205855874665849,0.14453668164770148,78.29115759037067
8.45,0.14166493932461086,0.19953199315672343,78.36915713602332
8.46,0.14916886066925317,0.14395918645414954,79.48065066157353
8.47,0.1132409948373294,0.14917145076518232,83.08192513869515
8.48,0.032016731070473856,0.07331227444296384,89.7358181979499
8.49,-0.05789389013169491,0.07215728405585999,97.62352225207378
8.5,-0.1425745055482039,0.0009476844201877773,104.78175328265075
8.51,-0.17913906773664276,0.025839208019182366,110.1229494429104
8.52,-0.19883117647743137,-0.015266603706462475,113.39893036032156
8.53,-0.229574514834875,0.020049448514597664,115.03692081902713
8.54,-0.2400345264061946,-0.034960670563489726,115.48541820652984
8.55,-0.2504945379775142,-0.004264579890844998,115.12644302483301
8.56,-0.24235392027635677,-0.03205838702666466,114.12840338386846
8.57,-0.23830635058136787,0.011372213042253328,112.6020940928019
8.58,-0.23771513253603244,-0.025691132328528026,110.91889935195672
8.59,-0.25104027771167,0.00037018922663585054,109.06818285965302
8.6,-0.2400345264061946,-0.040750430068074425,106.99233131512463
8.61,-0.23944330836085914,0.005567645968603192,104.72591269883125
8.62,-0.23944330836085914,-0.028001113102735734,102.30172227428592
8.63,-0.2429451383216922,0.00846992950542826,100.03530365799256
8.64,-0.23016573288021047,-0.014689108512910548,98.03833801759014
8.65,-0.24235392027635677,0.014259689010012962,96.35514327674495
8.66,-0.24408209610118348,-0.017591392049735616,94.9750831337771
8.67,-0.2452645321918544,0.013682193816461035,93.83079434471385
8.68,-0.24235392027635677,-0.022788848791702957,92.85491366558244
8.69,-0.25163149575700544,0.009624919892532113,91.97919149393681
8.7,-0.2469927080166811,-0.020478868017495253,91.09283302061128
8.71,-0.2562702834973298,0.00673744392477248,90.06111175766037
8.72,-0.2615002892829896,-0.02917091105890502,89.26427549014072
8.73,-0.26727603480280515,0.014837184203564889,88.45680292094116
8.74,-0.25977211345816287,-0.023381151554320318,87.46939958165652
8.75,-0.26904968893881154,0.013682193816461035,86.67256331413687
8.76,-0.2644109011984872,-0.027423617909183805,86.31358813244003
8.77,-0.28587666407528217,0.003257665194395485,86.41463299839914
8.78,-0.264956640932643,-0.014689108512910548,86.76208551994274
8.79,-0.2823748341144491,0.013682193816461035,87.17778764393242
8.8,-0.27250604058846495,-0.03553816575704165,87.6599666534215
8.81,-0.27427969472447133,0.01310469862290911,88.27687215085608
8.82,-0.2806466582896224,-0.017591392049735616,89.07370841837573
8.83,-0.28587666407528217,0.009624919892532113,89.92638526971488
8.84,-0.2887417976796001,-0.030325901446008875,90.66649459494171
8.85,-0.2852854460299467,0.022359429288805372,91.23908216871
8.86,-0.25858967736749194,-0.015266603706462475,91.55285306826724
8.87,-0.23944330836085914,0.021204438901701518,91.65389793422635
8.88,-0.229574514834875,-0.021633858404599103,91.5865346902536
8.89,-0.22438998736039487,0.03336145310442285,91.37380865665548
8.9,-0.21797754548406417,0.006159948731220553,91.04851509694501
8.91,-0.18609724934712926,0.06984730328165228,90.6106540111222
8.92,-0.2220705934902327,0.020626943708149593,90.04958909750714
8.93,-0.248175144107352,0.06463503897061951,89.38747931793297
8.94,-0.2754166525039626,-0.003687084697293071,88.65800629438606
8.95,-0.3218045299072059,0.0009476844201877773,87.91789696915924
8.96,-0.3235781840432123,-0.042482915648730205,87.21058290744547
8.97,-0.32298696599787685,0.01020241508608404,86.54935948634463
8.98,-0.3235781840432123,-0.041327925261626354,85.94309029058996
8.99,-0.32125879017305015,-0.006011873040566213,85.34834375498853
9.0,-0.3148463482967194,-0.02917091105890502,84.76511987954034
9.01,-0.33863150504367656,-0.022211353598151032,84.18189600409214
9.02,-0.26904968893881154,0.022359429288805372,83.62083109047707
9.03,-0.06194145982668379,0.22501581951833538,83.07040247854192
9.04,1.1074423555356658,0.5394101259156305,82.55454184706646
9.05,1.2292787511859493,0.5434673998395595,82.11668076124366
9.06,0.41835498454160364,0.1989544979631715,81.78075089985327
9.07,-0.26673029506864937,-0.12065207274515641,81.53345688579546
9.08,-0.30211242116641734,-0.08358872737437505,81.28704923021095
9.09,-0.2806466582896224,-0.001954599116637291,81.01759625432
9.1,-0.28642240380943795,-0.030325901446008875,80.74814327842904
9.11,-0.28123787633495784,0.02931898674955936,80.4902129626913
9.12,-0.2823748341144491,-0.01642159409356633,80.23228264695358
9.13,-0.2754166525039626,0.03510874625414406,80.00803395320222
9.14,-0.2748254344586271,-0.001954599116637291,79.82810318311714
9.15,-0.27196030085430917,0.04032101056517684,79.69337669517165
9.16,-0.25335967158183215,0.012527203429357182,79.59233182921254
9.17,-0.2522227138023409,0.05942277465958672,79.45760534126707
9.18,-0.22552694513988614,0.03510874625414406,79.25551560934885
9.19,-0.2168405877045729,0.07679205317334083,79.08799385789032
9.2,-0.1976942186979401,0.053633015155002024,78.896540427652
9.21,-0.16695088034049646,0.10922062942664133,78.68381439405388
9.22,-0.1315687542427285,0.08721658179540638,78.41436141816291
9.23,-0.08167904687865205,0.1503264411522862,78.08906785845245
9.24,-0.014962364378104968,0.13063237429525892,77.78593326057512
9.25,0.021010979764998466,0.18854477691017138,77.65120677262964
9.26,0.05116310007710666,0.14338169126059763,77.92065974852059
9.27,0.06335128747325296,0.18795247414755403,79.41328741760078
9.28,0.05461945172676008,0.12716740313394737,83.63146739215698
9.29,-0.01900993407309385,0.11732036970543375,90.92531126915276
9.3,-0.09909724006045813,0.03510874625414406,99.26151271077936
9.31,-0.16927027421065863,0.048998246037521176,106.56599288945505
9.32,-0.2168405877045729,0.00037018922663585054,111.90630269124136
9.33,-0.25281393184767637,0.007314939118324406,115.14948834513947
9.34,-0.2644109011984872,-0.028001113102735734,116.68643393788594
9.35,-0.27196030085430917,0.002680170000843558,116.97804587561004
9.36,-0.2783272644194602,-0.022788848791702957,116.52954848810732
9.37,-0.2783272644194602,0.00673744392477248,115.41805496255711
9.38,-0.2736884766791359,-0.028001113102735734,113.76942820217162
9.39,-0.2678672528481406,0.006159948731220553,111.90630269124136
9.4,-0.26209150732832504,-0.03263588222021658,109.8871780890058
9.41,-0.26554785897797845,0.0015251796137397042,107.6650773963787
9.42,-0.24931210188684327,-0.0193238776303914,105.26393229213984
9.43,-0.2504945379775142,0.005567645968603192,102.69437907796913
9.44,-0.24640148997134564,-0.0251136371349761,100.13634852395165
9.45,-0.2487208838415078,0.004990150775051265,97.74672607986604
9.46,-0.24408209610118348,-0.024536141941424172,95.74976043946361
9.47,-0.23712391449069697,0.01947195332104574,94.27929173221656
9.48,-0.23944330836085914,-0.021633858404599103,93.25909312941889
9.49,-0.25163149575700544,0.009624919892532113,92.51809744571874
9.5,-0.24408209610118348,-0.021633858404599103,91.8223060441582
9.51,-0.2412169624968655,0.01020241508608404,90.98115185297227
9.52,-0.2359869567112057,-0.004842075084396925,89.92638526971488
9.53,-0.24990331993217874,0.025839208019182366,88.68105161469252
9.54,-0.24235392027635677,-0.021633858404599103,87.5589217874624
9.55,-0.2504945379775142,-0.0002221135359815103,86.79576714192912
9.56,-0.2574527195880007,-0.027423617909183805,86.50415520420502
9.57,-0.2701866467183028,-0.005419570277948852,86.62735903199727
9.58,-0.25104027771167,-0.028001113102735734,86.95265259170773
9.59,-0.2591808954128274,0.01020241508608404,87.37899101737732
9.6,-0.2522227138023409,-0.026268627522079955,88.00741917496512
9.61,-0.25335967158183215,0.017739467740389956,88.95050459058348
9.62,-0.25335967158183215,-0.015844098900014404,90.06111175766037
9.63,-0.26209150732832504,0.011949708235805255,91.17171892473726
9.64,-0.2539508896271676,-0.019901372823943324,92.10328168020239
9.65,-0.22670938123055703,0.020626943708149593,92.75386879962333
9.66,-0.1890078612626269,-0.010631834588981627,93.19172988544614
9.67,-0.17331784390564753,0.024106722438526587,93.39293325889103
9.68,-0.16522270451566975,-0.007744358621221993,93.38229695721112
9.69,-0.17218088612615626,0.03915121260900755,93.16868456513967
9.7,-0.13097753619739302,0.02352922724497466,92.76539145977657
9.71,-0.1617208745548367,0.07215728405585999,92.26016712998101
9.72,-0.17973028578197822,0.024106722438526587,91.64326163254644
9.73,-0.22029693935422634,0.024106722438526587,90.93594757083267
9.74,-0.248175144107352,-0.038425641724801285,90.19583824560586
9.75,-0.25977211345816287,-0.001954599116637291,89.4442062602258
9.76,-0.2556790654519943,-0.02974840625245695,88.68105161469252
9.77,-0.2609090712376541,-0.001377103923085364,87.94005593099237
9.78,-0.25104027771167,-0.040172934874522497,87.24426452943185
9.79,-0.24758392606201657,0.00037018922663585054,86.5378368261914
9.8,-0.24408209610118348,-0.03553816575704165,85.88724970677045
9.81,-0.18550603130179383,0.024106722438526587,85.29250317116902
9.82,-0.12692996650240415,0.12947738390815508,84.7429609177072
9.83,0.9810126504562379,0.47456778097809493,84.22621392775841
9.84,1.4792730277404873,0.546932371000871,83.74403491826932
9.85,0.7454804768568287,0.31418700043037906,83.33985545443288
9.86,-0.1089205552752626,-0.13569656291563736,83.00303923456919
9.87,-0.24931210188684327,-0.08243373698727119,82.73447261715154
9.88,-0.18318663743163166,-0.03379087260732044,82.47654230141382
9.89,-0.201741788392929,0.018316962933941885,82.26292990934236
9.9,-0.21047362413942186,-0.021633858404599103,82.13972608155012
9.91,-0.20406118226309117,0.026416703212734295,82.02715855543778
9.92,-0.19419238873710704,0.004990150775051265,81.92611368947867
9.93,-0.18668846739246472,0.04147600095228069,81.75770557954681
9.94,-0.17741089191181605,0.009624919892532113,81.55650220610191
9.95,-0.16695088034049646,0.051323034380794316,81.3650487758636
9.96,-0.14316572359353932,0.021781934095253443,81.20816332608499
9.97,-0.14025511167804172,0.06405754377706757,81.0734368381395
9.98,-0.12461057263224198,0.031051472330215144,80.87134710622128
9.99,-0.09386723427479834,0.07852453875399662,80.61341679048356
