time_s,ECG,NIBP
0.0,-0.06363262891875669,554.4335227306914
0.01,-0.0625691913958989,-645.1677600636984
0.02,-0.06102829212808452,555.2758830242338
0.03,-0.05644899993781929,-645.809558382588
0.04,-0.05219524984638808,556.6798168468047
0.05,-0.050502430932451166,-646.9728178355753
0.06,-0.04837555588673556,557.100996993576
0.07,-0.0474640380100003,-648.3566954606808
0.08,-0.04698657626504374,558.5249870136121
0.09,-0.04716019871775522,-649.2592243466191
0.1,-0.04913515411734828,559.2269539248975
0.11,-0.052651008784755704,-649.4196739263416
0.12,-0.05538556241496149,560.269876193093
0.13,-0.05723030097502094,-650.9439449337042
0.14,-0.059812934959104176,561.5935852258027
0.15,-0.061180211774207065,-650.9038325387736
0.16,-0.06133213142032961,562.2955521370881
0.17,-0.06393646821100178,-652.6487217182545
0.18,-0.0668229414873301,563.1379124306305
0.19,-0.06866768004738956,-653.1701828523522
0.2,-0.06942727827800227,564.4215090684096
0.21,-0.07064263544698261,-654.8749596369025
0.22,-0.07187969542255189,565.9457800757723
0.23,-0.07370273117602241,-655.9780504974939
0.24,-0.07339889188377732,566.3469040250783
0.25,-0.07248737400704207,-656.1986686696122
0.26,-0.07125031403147279,567.3296577008779
0.27,-0.07218353471479698,-658.1842322186767
0.28,-0.07355081152989987,569.435558434734
0.29,-0.07552576692949294,-658.6254685629133
0.3,-0.07613344551398311,570.2177501358807
0.31,-0.07598152586786057,-660.4706387297207
0.32,-0.07598152586786057,571.0199980344926
0.33,-0.07737050548955239,-661.8745725522915
0.34,-0.08010505911975817,572.3637632646676
0.35,-0.07995313947363562,-661.4333362080549
0.36,-0.07919354124302291,573.5069665201895
0.37,-0.08010505911975817,-663.659574126703
0.38,-0.07980121982751308,573.5069665201895
0.39,-0.07949738053526799,-664.6222716050373
0.4,-0.07980121982751308,574.5298325909197
0.41,-0.08071273770424835,-665.0434517518086
0.42,-0.0816242555809836,575.7733168337681
0.43,-0.08225363697206271,-666.5677227591711
0.44,-0.08270939591043033,577.4179250259226
0.45,-0.08438051201777831,-667.0490714983383
0.46,-0.08438051201777831,578.460847294118
0.47,-0.08240555661818524,-667.7510384096237
0.48,-0.08179787803369508,578.6413530713057
0.49,-0.0805608180581258,-669.8368829460147
0.5,-0.07613344551398311,580.0452868938766
0.51,-0.06560758431834976,-670.19789450039
0.52,-0.052651008784755704,581.2286025443292
0.53,-0.0413438465519207,-670.9600300040713
0.54,-0.025327175289286855,582.692704959296
0.55,-0.013585956924673154,-672.7049191835523
0.56,-0.024719496704796683,583.976301597075
0.57,-0.05156586845530897,-672.6447505911564
0.58,-0.07431040976051259,584.3774255463809
0.59,-0.09171606064483825,-673.9885158213314
0.6,-0.10115678151102488,585.7011345790905
0.61,-0.10146062080326997,-675.6932926058817
0.62,-0.0994856654036769,584.9590552728746
0.63,-0.09690303141959367,-675.111662879388
0.64,-0.09293141781381861,588.0677658799957
0.65,-0.08835212562355338,-677.0972264284525
0.66,-0.08713676845457302,587.8270915104122
0.67,-0.08865596491579845,-677.5585189701543
0.68,-0.02823535137220411,589.5318682949625
0.69,0.17883112629282236,-678.9022842003293
0.7,0.5099508464201998,589.1106881481912
0.71,0.6680340896140006,-678.5011602510233
0.72,0.24901800280143735,590.8555773276721
0.73,-0.2980012372726631,-681.2488593037691
0.74,-0.2908393110983146,591.7380500161452
0.75,-0.07370273117602241,-679.7245882964065
0.76,-0.04592313874218593,592.8611970742019
0.77,-0.06806000146289938,-682.1915005846381
0.78,-0.05966101531298163,593.5029953930914
0.79,-0.05156586845530897,-681.3892526860262
0.8,-0.04898323447122573,593.5029953930914
0.81,-0.04622697803443102,-683.9564459615843
0.82,-0.04303666546585761,595.1877159801764
0.83,-0.037849694691102206,-682.853355100993
0.84,-0.03127374429465498,594.4255804764952
0.85,-0.023807978828061422,-684.9391996373839
0.86,-0.01708010878549165,596.5314812103513
0.87,-0.009462423672775552,-683.6355468021395
0.88,0.0013672768151028894,595.5487275345517
0.89,0.01343403727855061,-686.8645945940525
0.9,0.026390612812144658,598.2964265872976
0.91,0.0433405047581027,-686.2829648675588
0.92,0.06424030750324686,597.1933357267062
0.93,0.08728868810069557,-687.0049879763096
0.94,0.11367930091284023,599.2190116707013
0.95,0.14297808980790214,-687.5264491104073
0.96,0.1693687026200468,598.7777753264647
0.97,0.1875339517349852,-688.9103267355129
0.98,0.19988284868408907,599.6602480149378
0.99,0.20552557839721208,-689.2512820924229
1.0,0.19836365222286362,599.1788992757706
1.01,0.17028022049678207,-689.1108887101658
1.02,0.12450900140071867,601.3850809969534
1.03,0.07324697223765479,-689.5120126594718
1.04,0.029602628187307002,600.7633388755291
1.05,-0.005186970774755406,-690.9560588769732
1.06,-0.03036222641791972,601.9065421310512
1.07,-0.0444039422809605,-690.133754780896
1.08,-0.05111010951694134,602.026879315843
1.09,-0.05523364276883894,-691.4975762085363
1.1,-0.05966101531298163,602.2274412904959
1.11,-0.0625691913958989,-692.1794869223564
1.12,-0.06363262891875669,602.8692396093854
1.13,-0.06408838785712433,-691.9789249477034
1.14,-0.0625691913958989,602.7890148195243
1.15,-0.06148405106645215,-691.7783629730504
1.16,-0.059205256374614004,602.9294082017814
1.17,-0.05599324099945166,-690.2741481631531
1.18,-0.05325868736924588,602.5483404499407
1.19,-0.05126202916306388,-691.276958036418
1.2,-0.04913515411734828,603.0497453865731
1.21,-0.046834656618921194,-690.9761150744386
1.22,-0.044252022634837955,603.2503073612261
1.23,-0.043188585111980156,-690.4546539403408
1.24,-0.0433405047581027,603.6915437054627
1.25,-0.044252022634837955,-691.4173514186751
1.26,-0.04637889768055356,603.1500263738997
1.27,-0.04974283270183845,-691.3170704313486
1.28,-0.05417020524598114,602.0469355133082
1.29,-0.05768605991338857,-691.1365646541609
1.3,-0.06148405106645215,602.7288462271284
1.31,-0.0633287896265116,-691.4173514186751
1.32,-0.06348070927263415,602.9294082017814
1.33,-0.06393646821100178,-690.7755530997856
1.34,-0.06515182537998213,601.3850809969534
1.35,-0.06667102184120756,-690.0334737935696
1.36,-0.06866768004738956,602.0469355133082
1.37,-0.06836384075514447,-689.6323498442636
1.38,-0.06760424252453175,602.8090710169896
1.39,-0.06957919792412481,-690.5148225327367
1.4,-0.07109839438535025,602.2876098828918
1.41,-0.07324697223765479,-689.7526870290553
1.42,-0.07446232940663514,601.8463735386553
1.43,-0.0750700079911253,-689.2713382898883
1.44,-0.07613344551398311,601.7059801563981
1.45,-0.07721858584342985,-689.3114506848189
1.46,-0.07782626442792002,601.2647438121617
1.47,-0.07737050548955239,-688.990551525374
1.48,-0.07737050548955239,601.4051371944187
1.49,-0.07752242513567494,-688.3888656014151
1.5,-0.07598152586786057,601.625755366537
1.51,-0.07537384728337039,-688.2083598242274
1.52,-0.07628536516010564,599.4797422377501
1.53,-0.07628536516010564,-688.1481912318316
1.54,-0.07643728480622819,599.9209785819867
1.55,-0.07643728480622819,-687.2857747408237
1.56,-0.07552576692949294,599.6602480149378
1.57,-0.07309505259153225,-686.8645945940525
1.58,-0.07233545436091952,599.2992364605625
1.59,-0.07370273117602241,-687.6267300977338
1.6,-0.07385465082214496,597.9554712303875
1.61,-0.0729431329454097,-685.9420095106487
1.62,-0.0729431329454097,598.7176067340688
1.63,-0.07370273117602241,-684.7586938601962
1.64,-0.07233545436091952,597.1331671343103
1.65,-0.07049071580086007,-684.5380756880779
1.66,-0.06973111757024736,596.7922117774002
1.67,-0.06866768004738956,-684.5380756880779
1.68,-0.06760424252453175,596.7320431850044
1.69,-0.06821192110902193,-684.136951738772
1.7,-0.06821192110902193,596.0100200762536
1.71,-0.06851576040126701,-682.8934674959236
1.72,-0.06912343898575718,595.0673787953847
1.73,-0.06912343898575718,-682.3519501643605
1.74,-0.06790808181677684,594.886873018197
1.75,-0.06760424252453175,-681.8906576226586
1.76,-0.06836384075514447,593.4829391956262
1.77,-0.06821192110902193,-681.0282411316508
1.78,-0.0668229414873301,593.1620400361813
1.79,-0.06575950396447229,-680.907903946859
1.8,-0.06591142361059484,592.6205227046183
1.81,-0.06560758431834976,-679.3635767420311
1.82,-0.06515182537998213,592.5804103096877
1.83,-0.06424030750324686,-678.9825089901905
1.84,-0.0643922271493694,591.7581062136105
1.85,-0.06591142361059484,-679.1028461749822
1.86,-0.06667102184120756,590.8756335251373
1.87,-0.06714848358616413,-678.2003172890438
1.88,-0.0674523228784092,589.9329922442683
1.89,-0.06821192110902193,-677.6186875625502
1.9,-0.06730040323228667,589.3513625177748
1.91,-0.06591142361059484,-676.2147537399794
1.92,-0.06102829212808452,589.4716997025665
1.93,-0.05141394880918643,-675.6932926058817
1.94,-0.04088808761355307,588.3485526445098
1.95,-0.027150211042757375,-675.7735173957428
1.96,-0.007161926174348468,587.5864171408285
1.97,-0.0015191964612254326,-674.9913256945962
1.98,-0.021355561683511794,586.7039444523555
1.99,-0.04698657626504374,-674.4096959681026
2.0,-0.06545566467222722,586.4833262802372
2.01,-0.07995313947363562,-673.426942292303
2.02,-0.088807884561921,585.3802354196458
2.03,-0.08865596491579845,-671.8826150874751
2.04,-0.08650738706349392,584.5980437184992
2.05,-0.08438051201777831,-672.0631208646628
2.06,-0.08071273770424835,585.1796734449929
2.07,-0.0805608180581258,-672.2436266418504
2.08,-0.08453243166390086,584.0765825844014
2.09,-0.04561929944994085,-670.2981754877165
2.1,0.1260281978619441,583.0938289086018
2.11,0.44189084495730047,-668.9744664550069
2.12,0.6890858120052673,582.6325363669
2.13,0.41428487497617544,-668.6936796904927
2.14,-0.18113162379124945,581.3288835316556
2.15,-0.30379588663190865,-669.0948036397987
2.16,-0.08529202989451358,581.3890521240515
2.17,-0.03203334252526769,-667.8513193969502
2.18,-0.0625691913958989,580.6670290153008
2.19,-0.060876372481961975,-667.6307012248319
2.2,-0.05111010951694134,580.1455678812031
2.21,-0.045467379803818306,-666.6680037464977
2.22,-0.04394818334259287,579.5839943521747
2.23,-0.042884745819735066,-665.1036203442044
2.24,-0.040128489382940356,578.0597233448121
2.25,-0.035853036484920206,-665.7454186630939
2.26,-0.026390612812144658,577.578374605645
2.27,-0.018621008053306017,-663.9804732861478
2.28,-0.011589298718491157,577.0168010766166
2.29,-0.00045575893836762976,-663.8601361013559
2.3,0.010222021903388268,576.3750027577271
2.31,0.01983636522228636,-662.6968766483687
2.32,0.035093438254307496,576.3148341653313
2.33,0.05599324099945166,-662.2355841066668
2.34,0.07737050548955239,574.208933431475
2.35,0.1005491029265347,-661.5336171953815
2.36,0.12572435856969902,573.8278656796343
2.37,0.15304819206516787,-659.9491775956229
2.38,0.17546719127153745,573.8278656796343
2.39,0.1907242643035586,-659.889009003227
2.4,0.2006424469147018,572.3838194621328
2.41,0.19730021470000583,-660.1296833728105
2.42,0.17822344770833218,571.4411781812638
2.43,0.14191465228504435,-657.803164466836
2.44,0.09154243819212678,572.2434260798758
2.45,0.0433405047581027,-658.2444008110726
2.46,0.004123533251897603,570.839492257305
2.47,-0.026390612812144658,-657.4822653073912
2.48,-0.046530817326676105,569.6962890017829
2.49,-0.05629708029169674,-656.7000736062447
2.5,-0.061180211774207065,569.1146592752893
2.51,-0.06714848358616413,-654.9351282292985
2.52,-0.07233545436091952,567.9915122172326
2.53,-0.07263929365316461,-654.1529365281518
2.54,-0.07203161506867443,567.5903882679266
2.55,-0.07064263544698261,-653.6314753940541
2.56,-0.06942727827800227,567.2293767135513
2.57,-0.06790808181677684,-653.2704638396788
2.58,-0.06287303068814397,565.1635883746256
2.59,-0.0602686938974718,-652.5885531258587
2.6,-0.05768605991338857,564.5217900557361
2.61,-0.05599324099945166,-652.949564680234
2.62,-0.05477788383047131,564.1808346988261
2.63,-0.05371444630761351,-652.2475977689486
2.64,-0.05341060701536842,562.9172942585124
2.65,-0.05462596418434877,-650.32220281228
2.66,-0.05447404453822623,562.7969570737205
2.67,-0.0570783813288984,-650.5829333793289
2.68,-0.06042061354359435,561.7740910029903
2.69,-0.0633287896265116,-648.8982127922438
2.7,-0.06454414679549195,561.6537538181985
2.71,-0.06591142361059484,-649.3193929390151
2.72,-0.06606334325671738,560.5105505626766
2.73,-0.0674523228784092,-647.8954029189789
2.74,-0.0674523228784092,559.9690332311136
2.75,-0.06760424252453175,-646.8925930457141
2.76,-0.06912343898575718,559.0263919502446
2.77,-0.06897151933963463,-645.9700079623103
2.78,-0.06714848358616413,558.043638274445
2.79,-0.06591142361059484,-646.4313005040123
2.8,-0.06806000146289938,557.5622895352778
2.81,-0.06881959969351209,-644.7866923118578
2.82,-0.06775616217065429,557.5823457327431
2.83,-0.06667102184120756,-644.4056245600171
2.84,-0.06714848358616413,555.356107814095
2.85,-0.0674523228784092,-642.9214659475851
2.86,-0.06699656394004158,555.8976251456581
2.87,-0.06699656394004158,-641.4573635326184
2.88,-0.06730040323228667,554.9549838647891
2.89,-0.06714848358616413,-642.1593304439037
2.9,-0.0674523228784092,553.129869895447
2.91,-0.06699656394004158,-640.5949470416106
2.92,-0.06575950396447229,553.6513310295447
2.93,-0.06560758431834976,-639.552024773415
2.94,-0.06560758431834976,551.3248121235702
2.95,-0.06393646821100178,-639.1910132190397
2.96,-0.06348070927263415,550.4824518300277
2.97,-0.06378454856487924,-638.468990110289
2.98,-0.06363262891875669,550.101384078187
2.99,-0.06469606644161449,-637.5664612243506
3.0,-0.06499990573385958,548.9782370201303
3.01,-0.06621526290283992,-637.0249438927875
3.02,-0.06760424252453175,548.0556519367267
3.03,-0.06699656394004158,-636.3630893764328
3.04,-0.06636718254896247,547.2935164330454
3.05,-0.06760424252453175,-635.3402233057026
3.06,-0.06667102184120756,545.5285710560992
3.07,-0.06484798608773704,-634.6382563944171
3.08,-0.06408838785712433,545.1274471067932
3.09,-0.05844565814400129,-633.3546597566381
3.1,-0.04577121909606339,544.1848058259242
3.11,-0.033878081085327146,-632.4521308706996
3.12,-0.02014020451453145,543.1218273602634
3.13,-0.003819693959652516,-632.2315126985814
3.14,-0.003819693959652516,542.4800290413739
3.15,-0.026694452104389744,-630.7473540861494
3.16,-0.05280292843087825,541.4972753655743
3.17,-0.07109839438535025,-628.842015326946
3.18,-0.08422859237165577,539.5117118165098
3.19,-0.08744060774681811,-629.0826896965297
3.2,-0.08635546741737138,540.19362253033
3.21,-0.08498819060226849,-627.6185872815629
3.22,-0.08194979767981762,539.1507002621345
3.23,-0.07643728480622819,-626.2146534589921
3.24,-0.07248737400704207,538.4286771533838
3.25,-0.07491808834500276,-625.7934733122208
3.26,-0.029298788895061913,536.5233383941804
3.27,0.14786122129041246,-624.8508320313518
3.28,0.46569882378536187,535.5606409158462
3.29,0.6964213606323273,-622.8251560873567
3.3,0.3804067938908483,534.5979434375118
3.31,-0.21911153532188524,-622.9655494696138
3.32,-0.30837517882217386,533.5149087743858
3.33,-0.07476616869888021,-622.5243131253773
3.34,-0.01831716876106093,531.850244384766
3.35,-0.042884745819735066,-619.8367826650274
3.36,-0.03539727754655258,532.1711435442108
3.37,-0.02563101458153194,-620.0373446396803
3.38,-0.022440702012958533,530.8273783140359
3.39,-0.01677626949324656,-617.4099827717264
3.4,-0.009158584380530466,529.0423767396244
3.41,-0.004579292190265233,-617.791050523567
3.42,0.0,528.2802412359431
3.43,0.006250408297613208,-617.1291960072122
3.44,0.014041715863040784,528.4406908156654
3.45,0.02335221988969379,-616.1865547263432
3.46,0.032814643562469346,525.6929917629196
3.47,0.04394818334259287,-613.619361450785
3.48,0.05844565814400129,526.1542843046216
3.49,0.07339889188377732,-614.020485400091
3.5,0.09063092031539152,523.5269224366675
3.51,0.11261586338998242,-612.5764391825895
3.52,0.13961415478661726,523.0455736975003
3.53,0.16891294368167917,-610.5908756335251
3.54,0.19608485753102547,520.6388300016646
3.55,0.21544376100835527,-610.3301450664762
3.56,0.2299412358097637,520.8995605687135
3.57,0.2381883023135589,-609.0064360337666
3.58,0.23300133153880348,519.0343342044408
3.59,0.21010487058747732,-607.5824460137304
3.6,0.16708990792820866,518.2120301083636
3.61,0.11337546162059514,-606.9005352999103
3.62,0.06408838785712433,517.6905689742658
3.63,0.026390612812144658,-605.19575851536
3.64,-0.001823035753470519,517.3295574198905
3.65,-0.02105172239126671,-604.313285826887
3.66,-0.034181920377572235,515.2036004885689
3.67,-0.041799605490288334,-603.7316561003933
3.68,-0.04501162086545067,514.401352589957
3.69,-0.046834656618921194,-602.3277222778224
3.7,-0.048223636240613016,512.9974187673862
3.71,-0.050198591640206076,-602.8090710169896
3.72,-0.05095818987081879,513.9400600482552
3.73,-0.04867939517898065,-600.7031702831333
3.74,-0.045467379803818306,512.1149460789131
3.75,-0.04164768584416579,-600.0413157667784
3.76,-0.03800161433722475,510.831349441134
3.77,-0.035853036484920206,-598.6975505366036
3.78,-0.03463767931593986,509.2669660388408
3.79,-0.03251080427022426,-597.4139538988245
3.8,-0.03051414606404226,507.4217958720334
3.81,-0.03172950323302261,-596.1905258534413
3.82,-0.033270402500836974,506.98055952779686
3.83,-0.033270402500836974,-595.5888399294823
3.84,-0.03342232214695952,504.7543216091488
3.85,-0.03630879542328784,-593.7837821576056
3.86,-0.0413438465519207,502.9693200347373
3.87,-0.0444039422809605,-593.1018714437854
3.88,-0.047312118363877755,503.27016299671675
3.89,-0.05156586845530897,-592.0188367806594
3.9,-0.0550817231227164,501.56538621216646
3.91,-0.05644899993781929,-591.4372070541657
3.92,-0.05690475887618692,500.5826325363669
3.93,-0.05723030097502094,-589.571980689893
3.94,-0.05675283923006438,499.88066562508146
3.95,-0.057837979559511116,-588.5691708166281
3.96,-0.0581418188517562,498.8979119492819
3.97,-0.058597577790123825,-587.3657989687102
3.98,-0.05798989920563365,497.27335995459276
3.99,-0.05798989920563365,-586.6638320574249
4.0,-0.05966101531298163,496.13015669907077
4.01,-0.05996485460522672,-585.119504852597
4.02,-0.06042061354359435,495.42818978778536
4.03,-0.06163597071257469,-582.9133231314141
4.04,-0.06348070927263415,493.6833006083044
4.05,-0.0633287896265116,-582.7929859466224
4.06,-0.06348070927263415,492.2994229831989
4.07,-0.06348070927263415,-581.3088273341904
4.08,-0.06454414679549195,490.07318506455084
4.09,-0.06560758431834976,-579.7043315369665
4.1,-0.06591142361059484,489.7121735101755
4.11,-0.06560758431834976,-577.0569134715472
4.12,-0.06560758431834976,488.6491950445147
4.13,-0.0674523228784092,-577.0569134715472
4.14,-0.06881959969351209,486.4229571258667
4.15,-0.06775616217065429,-574.9911251326216
4.16,-0.06651910219508501,485.7410464120465
4.17,-0.06667102184120756,-574.1287086416138
4.18,-0.06836384075514447,484.65801174892044
4.19,-0.06927535863187972,-571.2205600091456
4.2,-0.0698830372163699,483.3744151111414
4.21,-0.07079455509310516,-571.1002228243538
4.22,-0.07155415332371788,480.88744662544445
4.23,-0.07140223367759534,-568.7335915234487
4.24,-0.0698830372163699,479.3431194206165
4.25,-0.07018687650861499,-568.3926361665386
4.26,-0.07155415332371788,477.53806164873976
4.27,-0.07079455509310516,-566.7079155794536
4.28,-0.07079455509310516,476.55530797294017
4.29,-0.07033879615473752,-565.1234759796951
4.3,-0.0698830372163699,475.71294767939764
4.31,-0.06973111757024736,-564.6621834379932
4.32,-0.07109839438535025,472.4638436900194
4.33,-0.0709464747392277,-563.298362010353
4.34,-0.07033879615473752,472.84491144186006
4.35,-0.07018687650861499,-560.7712811297255
4.36,-0.06530374502610467,472.0426635432481
4.37,-0.0550817231227164,-560.9517869069132
4.38,-0.04531546015769576,469.9367628093919
4.39,-0.03096990500240989,-557.7026829175348
4.4,-0.01082970048787844,467.3094009414379
4.41,-0.006250408297613208,-557.0608845986453
4.42,-0.027150211042757375,467.7706934831397
4.43,-0.05234716949251062,-554.7143094952055
4.44,-0.07155415332371788,466.8882207946666
4.45,-0.08559586918675866,-553.1900384878429
4.46,-0.0918679802909608,465.0229944303939
4.47,-0.09293141781381861,-552.3476781943004
4.48,-0.09171606064483825,462.73658791935
4.49,-0.088807884561921,-550.9437443717295
4.5,-0.08286131555655288,459.9688326691389
4.51,-0.08194979767981762,-549.559866746624
4.52,-0.08210171732594017,458.6451236364292
4.53,-0.015408992678143673,-547.5743031975595
4.54,0.19545547613994638,458.56489884656804
4.55,0.523840642637118,-546.1703693749887
4.56,0.6645182349465931,456.88017825948305
4.57,0.2264470839489452,-544.2850868132507
4.58,-0.2864119385541719,454.07231061434135
4.59,-0.24064071945810853,-542.961377780541
4.6,-0.0444039422809605,454.13247920673723
4.61,-0.03997656973681781,-542.3998042515127
4.62,-0.05966101531298163,450.9636000072202
4.63,-0.05065435057857371,-540.3540721100524
4.64,-0.04592313874218593,448.9379240632251
4.65,-0.044252022634837955,-538.6292391280367
4.66,-0.040128489382940356,447.45376545079307
4.67,-0.03600495613104275,-534.0564261059488
4.68,-0.030666065710164805,446.25039360287525
4.69,-0.02517525564316431,-533.8157517363653
4.7,-0.020899802745144167,444.18460526394955
4.71,-0.013737876570795698,-532.3717055188638
4.72,-0.00351585466740743,442.29932270221155
4.73,0.005338890420877949,-529.483613083861
4.74,0.01616859090875639,440.63465831259185
4.75,0.029298788895061913,-528.1599040511513
4.76,0.04394818334259287,438.8697129356456
4.77,0.06272111104202144,-526.2746214894133
4.78,0.0857477888328812,436.6835874119282
4.79,0.11137880341441314,-524.4495075200712
4.8,0.1400699137249849,435.23954119442675
4.81,0.1669379882820861,-522.343606786215
4.82,0.1872301124427401,433.1737528555011
4.83,0.1989713308073538,-519.8967506954486
4.84,0.20400638193598666,431.48903226841605
4.85,0.19973092903796652,-519.1747275866979
4.86,0.17594465301649403,429.14245716497624
4.87,0.13199646967390116,-517.0688268528417
4.88,0.08147233593486106,427.45773657789124
4.89,0.037242016106612034,-515.343993870826
4.9,0.001215357168980346,425.8732969781327
4.91,-0.023959898474183967,-513.6793294812063
4.92,-0.03936889115232764,423.8676772316029
4.93,-0.050806270224696255,-511.27258578537055
4.94,-0.05738222062114348,420.4180112675717
4.95,-0.06072445283583944,-509.7282585805427
4.96,-0.06302495033426651,419.6558757638904
4.97,-0.06530374502610467,-507.5621892542905
4.98,-0.06530374502610467,418.8536278652785
4.99,-0.06545566467222722,-505.6568504950872
5.0,-0.0643922271493694,414.4011520279824
5.01,-0.06057253318971689,-502.74870186261904
5.02,-0.05768605991338857,414.60171400263533
5.03,-0.05644899993781929,-500.68291352369334
5.04,-0.055841321353329115,412.07463312200787
5.05,-0.05538556241496149,-499.4193730833796
5.06,-0.05447404453822623,409.5074398464497
5.07,-0.05523364276883894,-496.37083106865435
5.08,-0.05844565814400129,406.8199093860998
5.09,-0.0625691913958989,-494.1646493474716
5.1,-0.06515182537998213,404.2326599130764
5.11,-0.06636718254896247,-492.5200411553172
5.12,-0.07218353471479698,402.74850130064436
5.13,-0.08132041628873851,-490.2135784468079
5.14,-0.08683292916232795,399.8804650631068
5.15,-0.08865596491579845,-487.5862165788539
5.16,-0.0912385988998817,398.47653124053596
5.17,-0.09308333745994114,-484.61789935398986
5.18,-0.09384293569055387,395.04692147397003
5.19,-0.09627365002851455,-482.4317738302724
5.2,-0.09690303141959367,392.6602339755996
5.21,-0.09690303141959367,-480.0651425293673
5.22,-0.09766262965020638,390.49416464934745
5.23,-0.09872606717306419,-477.959241795511
5.24,-0.09902990646530926,389.0300622343807
5.25,-0.09933374575755435,-475.7931724692588
5.26,-0.10085294221877979,386.3425317740308
5.27,-0.10209000219434906,-472.6042370722765
5.28,-0.10130870115714742,383.0934277846526
5.29,-0.10193808254822653,-469.7963694271348
5.3,-0.10421687724006468,381.0476956431922
5.31,-0.10482455582455485,-468.0514802476539
5.32,-0.10497647547067739,378.90168251440537
5.33,-0.10497647547067739,-465.4842869720958
5.34,-0.10209000219434906,375.311623168117
5.35,-0.09933374575755435,-462.4357449573705
5.36,-0.10039718328041215,372.40347453564885
5.37,-0.10224192184047161,-459.3470905477147
5.38,-0.10163424325598144,370.81903493589033
5.39,-0.10085294221877979,-456.88017825948305
5.4,-0.09872606717306419,367.830661513561
5.41,-0.09475445356728912,-453.7915238498272
5.42,-0.09308333745994114,364.0400401926197
5.43,-0.09490637321341167,-451.625454523575
5.44,-0.09796646894245147,363.0572865168201
5.45,-0.09657748932075964,-447.79472080770313
5.46,-0.09445061427504403,359.42711477560124
5.47,-0.09612173038239201,-445.7088762713122
5.48,-0.09596981073626946,356.4989099456677
5.49,-0.09551405179790184,-443.0213458109623
5.5,-0.09384293569055387,353.4303117334772
5.51,-0.09078283996151407,-439.67196083425756
5.52,-0.0918679802909608,350.6826126807314
5.53,-0.09612173038239201,-436.0417890930387
5.54,-0.0964255696746371,346.952159952186
5.55,-0.09627365002851455,-432.87290989352164
5.56,-0.0973587903579613,344.5654724538156
5.57,-0.09551405179790184,-430.4260538027553
5.58,-0.09720687071183876,340.87513212020076
5.59,-0.1005491029265347,-427.03655643111995
5.6,-0.09766262965020638,338.4082198319692
5.61,-0.09612173038239201,-424.2888573783742
5.62,-0.09918182611143181,335.64046458175807
5.63,-0.09994142434204453,-421.5010459306978
5.64,-0.09994142434204453,332.5116977771716
5.65,-0.09963758504979944,-418.4525039159725
5.66,-0.0973587903579613,328.0993343348061
5.67,-0.09690303141959367,-414.06019667107233
5.68,-0.09766262965020638,326.1739393781375
5.69,-0.09705495106571621,-411.4328348031183
5.7,-0.09171606064483825,322.24292467493916
5.71,-0.08101657699649342,-409.32693406926205
5.72,-0.07049071580086007,318.8734835007691
5.73,-0.059812934959104176,-404.69395245477824
5.74,-0.03691647400777801,315.5240985240644
5.75,-0.020444043806776536,-401.28439888567766
5.76,-0.033878081085327146,312.0142639676373
5.77,-0.06484798608773704,-397.61411474952814
5.78,-0.0898713220847788,308.0431368695083
5.79,-0.10573607370129011,-394.90652809171297
5.8,-0.11092304447604552,306.1578543077704
5.81,-0.11185626515936971,-390.8150638087922
5.82,-0.11337546162059514,302.1265586172455
5.83,-0.11155242586712462,-387.5057912270181
5.84,-0.10619183263965774,298.6167240608184
5.85,-0.10269768077883924,-383.3541583517014
5.86,-0.10528031476292248,295.5882382435584
5.87,-0.07385465082214496,-380.3056163369762
5.88,0.07904162159690037,292.058347489666
5.89,0.3851380057272361,-376.254264448986
5.9,0.6417953964479785,287.3451410853211
5.91,0.39551194727674693,-373.34611581651785
5.92,-0.20585112049604612,283.83530652889397
5.93,-0.38192599035207375,-369.57555069304186
5.94,-0.15777940390155565,280.9472140938911
5.95,-0.05447404453822623,-365.6846483847741
5.96,-0.07476616869888021,276.7354126261785
5.97,-0.07598152586786057,-362.51576918525706
5.98,-0.06515182537998213,274.4490061151346
5.99,-0.060876372481961975,-359.4070585781359
6.0,-0.058597577790123825,271.5208012852011
6.01,-0.05538556241496149,-354.8543017535133
6.02,-0.049894752347960994,266.2861337467584
6.03,-0.04379626369647033,-351.5650853692045
6.04,-0.03860929292171492,264.5211883698122
6.05,-0.03157758358690006,-349.15834167336874
6.06,-0.022896460951326164,260.670398456475
6.07,-0.013737876570795698,-344.58552865128087
6.08,-0.004427372544142689,256.2179226191789
6.09,0.008095146857672663,-340.2734461962418
6.1,0.02196324026800197,252.64791947035593
6.11,0.03739393575273458,-337.0443984043289
6.12,0.0581418188517562,248.17538743559453
6.13,0.08422859237165577,-332.89276552901225
6.14,0.11001152659931025,245.20707021073045
6.15,0.13397142507349422,-329.52332435484226
6.16,0.15441546888027075,241.45656128471978
6.17,0.16663414898984102,-326.5951195249088
6.18,0.1734922358719444,237.76622095110497
6.19,0.17470759304092476,-322.30309326733504
6.2,0.15914668071665852,235.01852189835918
6.21,0.12420516210847359,-319.0539892779568
6.22,0.07919354124302291,229.60334858272878
6.23,0.034181920377572235,-315.40376133927265
6.24,-0.005338890420877949,225.47177190487744
6.25,-0.035093438254307496,-310.3897119729482
6.26,-0.05417020524598114,222.56362327240927
6.27,-0.06621526290283992,-307.04032699624344
6.28,-0.07309505259153225,218.8331705438639
6.29,-0.07628536516010564,-303.8112792043305
6.3,-0.07797818407404256,214.68153766854726
6.31,-0.07888970195077782,-300.3215008453687
6.32,-0.07782626442792002,211.632995653822
6.33,-0.07643728480622819,-295.44784486130135
6.34,-0.07598152586786057,208.50422884923555
6.35,-0.07431040976051259,-292.7202020060208
6.36,-0.07155415332371788,203.89130343221706
6.37,-0.06973111757024736,-288.7891873028225
6.38,-0.06821192110902193,200.58203085044292
6.39,-0.06775616217065429,-285.31946514132596
6.4,-0.06760424252453175,196.77135333203634
6.41,-0.06714848358616413,-280.88704550149515
6.42,-0.06836384075514447,192.29882129727494
6.43,-0.07049071580086007,-277.8585596842352
6.44,-0.07461424905275768,189.2302230850844
6.45,-0.07782626442792002,-273.96765737596746
6.46,-0.0805608180581258,187.04409756136693
6.47,-0.08270939591043033,-270.01658647530377
6.48,-0.08392475307941068,181.78937382545894
6.49,-0.08529202989451358,-267.44939319974566
6.5,-0.08759252739294066,179.2021243524355
6.51,-0.08971940243865627,-264.40085118502043
6.52,-0.09171606064483825,175.07054767458416
6.53,-0.09262757852157352,-259.92831915025903
6.54,-0.09201989993708334,170.55790324489217
6.55,-0.09154243819212678,-254.67359541435098
6.56,-0.09093475960763661,167.7901479946811
6.57,-0.09032708102314643,-251.52477241229926
6.58,-0.09032708102314643,164.0596952661357
6.59,-0.09032708102314643,-247.95476926347624
6.6,-0.09002324173090134,159.08575829474185
6.61,-0.09002324173090134,-242.82038271236001
6.62,-0.08895980420804354,155.27508077633527
6.63,-0.08835212562355338,-239.87212168496126
6.64,-0.08865596491579845,153.4098544120626
6.65,-0.088807884561921,-237.18459122461135
6.66,-0.08911172385416609,148.89720998237058
6.67,-0.09002324173090134,-233.1934079290171
6.68,-0.08926364350028863,144.96619527917224
6.69,-0.08941556314641118,-230.06464112443064
6.7,-0.08895980420804354,141.39619213034922
6.71,-0.0877444470390632,-225.9330644465793
6.72,-0.08789636668518575,138.48804349788105
6.73,-0.08820020597743083,-221.96193734845033
6.74,-0.08744060774681811,135.1988271135722
6.75,-0.08650738706349392,-217.99081025032137
6.76,-0.08665930670961647,130.40539591936604
6.77,-0.08514011024839103,-214.05979554712303
6.78,-0.08392475307941068,127.3769101021061
6.79,-0.0836209137871656,-210.54996099069592
6.8,-0.08179787803369508,121.54055663970445
6.81,-0.08040889841200326,-207.74209334555422
6.82,-0.07797818407404256,120.01628563234182
6.83,-0.07752242513567494,-204.17209019673123
6.84,-0.07980121982751308,116.32594529872702
6.85,-0.08010505911975817,-200.56197465297763
6.86,-0.0781301037201651,112.27459341073688
6.87,-0.07873778230465528,-196.1295550131468
6.88,-0.08010505911975817,109.4867819630605
6.89,-0.08101657699649342,-192.94061961616447
6.9,-0.08116849664261597,105.91677881423749
6.91,-0.07964930018139053,-190.71438169751642
6.92,-0.07934546088914544,102.56739383753276
6.93,-0.08086465735037088,-186.88364798164454
6.94,-0.08225363697206271,99.05755928110565
6.95,-0.07934546088914544,-182.9526332784462
6.96,-0.06575950396447229,95.14660077537259
6.97,-0.05095818987081879,-179.60324830174147
6.98,-0.039520810798450184,90.87463071526416
6.99,-0.020444043806776536,-175.99313275798787
7.0,-0.008398986149917749,88.18710025491427
7.01,-0.023504139535816336,-173.0047593356585
7.02,-0.05035051128632862,84.61709710609126
7.03,-0.06973111757024736,-168.7327892755501
7.04,-0.08483627095614595,81.56855509136601
7.05,-0.09657748932075964,-166.16559599999198
7.06,-0.09918182611143181,77.53725940084115
7.07,-0.09766262965020638,-163.1170539852667
7.08,-0.09612173038239201,74.82967274302595
7.09,-0.09323525710606369,-161.47244579311229
7.1,-0.08941556314641118,72.78394060156558
7.11,-0.09217181958320589,-157.62165587977512
7.12,-0.0643922271493694,69.09360026795079
7.13,0.08377283343328815,-153.87114695376445
7.14,0.37995103495248067,65.92472106843374
7.15,0.65826782664898,-151.86552720723466
7.16,0.4629425673485672,63.257246805549144
7.17,-0.13642384221804385,-147.39299517247326
7.18,-0.3237841715003176,59.92791802630972
7.19,-0.10894808907645245,-145.02636387156812
7.2,-0.036460715069410385,56.69887023439678
7.21,-0.06760424252453175,-142.5393953858712
7.22,-0.0668229414873301,55.23476781943004
7.23,-0.05690475887618692,-138.60838068267284
7.24,-0.05310676772312334,52.126057212308886
7.25,-0.04913515411734828,-137.56545841447735
7.26,-0.0433405047581027,48.49588547108999
7.27,-0.037849694691102206,-135.78045684006585
7.28,-0.032814643562469346,45.64790543101771
7.29,-0.027627672787713938,-130.52573310415784
7.3,-0.01922868663779619,41.65672213542345
7.31,-0.012045057656858787,-128.05882081592623
7.32,-0.0036677743135299728,40.09233873313023
7.33,0.006402327943735752,-126.83539277054305
7.34,0.018469088407183473,38.08671898660045
7.35,0.032814643562469346,-122.62359130283052
7.36,0.049894752347960994,34.85767119468751
7.37,0.07155415332371788,-120.09651042220301
7.38,0.09596981073626946,30.826375504162662
7.39,0.12511667998520884,-116.88751882775536
7.4,0.1545673885263933,29.5628350638489
7.41,0.17989456381568014,-114.68133710657261
7.42,0.1992751700995989,26.494236851658346
7.43,0.20888951341849699,-111.87346946143093
7.44,0.207218397311149,23.927043576100232
7.45,0.19196132427912788,-110.81049099577014
7.46,0.15578274569537365,23.104739480023024
7.47,0.10543223440904502,-106.81930770017588
7.48,0.05538556241496149,19.233893369220556
7.49,0.015560912324266216,-104.15183343729129
7.5,-0.01525707303202113,17.0277116480378
7.51,-0.03739393575273458,-102.04593270343501
7.52,-0.05035051128632862,14.741305136993855
7.53,-0.05723030097502094,-99.03750308364036
7.54,-0.06042061354359435,12.394730033554017
7.55,-0.06287303068814397,-96.53047840047813
7.56,-0.06348070927263415,8.202984763306786
7.57,-0.06499990573385958,-94.44463386408717
7.58,-0.06469606644161449,7.681523629209043
7.59,-0.06302495033426651,-91.95766537839025
7.6,-0.06057253318971689,4.93382457646325
7.61,-0.05723030097502094,-88.98934815352618
7.62,-0.05432212489210368,2.466912288231625
7.63,-0.05171778810143151,-87.98653828026129
7.64,-0.04776787730224539,-0.8223040960772083
7.65,-0.04561929944994085,-84.81765908074424
7.66,-0.04607505838830848,-1.9253949566685853
7.67,-0.04622697803443102,-82.15018481785964
7.68,-0.04561929944994085,-4.191745270247233
7.69,-0.04698657626504374,-80.90670057501117
7.7,-0.04928707376347082,-6.839163335666537
7.71,-0.05141394880918643,-77.97849574507771
7.72,-0.05432212489210368,-9.466525203620543
7.73,-0.05723030097502094,-76.51439333011096
7.74,-0.06057253318971689,-10.93062761858728
7.75,-0.06408838785712433,-74.10764963427523
7.76,-0.06775616217065429,-13.156865537235333
7.77,-0.07003495686249245,-71.38000677899474
7.78,-0.0709464747392277,-16.1452389595647
7.79,-0.07233545436091952,-69.55489280965264
7.8,-0.07309505259153225,-18.19097110102507
7.81,-0.07431040976051259,-67.44899207579638
7.82,-0.07628536516010564,-19.594904923595916
7.83,-0.07904162159690037,-65.94477726589905
7.84,-0.07980121982751308,-22.4027725687376
7.85,-0.07919354124302291,-62.13409974749247
7.86,-0.07752242513567494,-23.76659399637785
7.87,-0.07888970195077782,-59.607018866864955
7.88,-0.07964930018139053,-26.674742628846026
7.89,-0.07797818407404256,-58.22314124175941
7.9,-0.0770666661973073,-28.379519413396334
7.91,-0.07904162159690037,-56.357914877486714
7.92,-0.08255747626430779,-30.064240000481348
7.93,-0.08377283343328815,-53.71049681206741
7.94,-0.08453243166390086,-32.65148947350476
7.95,-0.08529202989451358,-51.90543904019061
7.96,-0.08529202989451358,-34.61699682510394
7.97,-0.08713676845457302,-49.558863936750775
7.98,-0.08971940243865627,-36.38194220205014
7.99,-0.08926364350028863,-48.25521110150642
8.0,-0.088807884561921,-38.247168566322834
8.01,-0.08911172385416609,-45.587736838621815
8.02,-0.08895980420804354,-39.61098999396308
8.03,-0.088807884561921,-43.80273526421031
8.04,-0.09078283996151407,-41.75700312274994
8.05,-0.09414677498279896,-42.1380708745906
8.06,-0.09460253392116658,-45.206669086781154
8.07,-0.09657748932075964,-39.77143957368546
8.08,-0.09872606717306419,-45.68801782594831
8.09,-0.09675111177347112,-37.42486447024562
8.1,-0.09720687071183876,-47.212288833310936
8.11,-0.09796646894245147,-36.68278516402961
8.12,-0.0964255696746371,-50.32099944043209
8.13,-0.09475445356728912,-32.47098369631708
8.14,-0.09690303141959367,-52.28650679203127
8.15,-0.09596981073626946,-31.3678928357257
8.16,-0.09475445356728912,-55.05426204224236
8.17,-0.09857414752694164,-29.38232928666122
8.18,-0.09627365002851455,-55.5957793738054
8.19,-0.09108667925375916,-27.43687813252734
8.2,-0.09201989993708334,-57.982466872175834
8.21,-0.09399485533667641,-26.133225297282983
8.22,-0.09201989993708334,-60.910671702109305
8.23,-0.09047900066926898,-24.38833611780208
8.24,-0.09232373922932843,-62.31460552468015
8.25,-0.0942986946289215,-21.660693262521583
8.26,-0.09475445356728912,-62.615448486659616
8.27,-0.09063092031539152,-20.01608507036717
8.28,-0.08101657699649342,-67.20831770621281
8.29,-0.06912343898575718,-18.03052152130269
8.3,-0.05629708029169674,-68.03062180229001
8.31,-0.03769777504497966,-16.726868686058335
8.32,-0.023656059181938877,-70.03624154881979
8.33,-0.032185262171390235,-13.798663856124861
8.34,-0.06102829212808452,-72.36276045479433
8.35,-0.08895980420804354,-11.692763122268596
8.36,-0.10178616290210399,-74.24804301653232
8.37,-0.10573607370129011,-9.887705350391798
8.38,-0.1080365711997172,-76.07315698587442
8.39,-0.10834041049196227,-8.303265750633274
8.4,-0.10634375228578029,-77.75787757295943
8.41,-0.1025457611327167,-6.859219533131835
8.42,-0.10039718328041215,-79.56293534483622
8.43,-0.10300152007108433,-3.630171741218895
8.44,-0.0836209137871656,-82.39085918744321
8.45,0.04577121909606339,-2.3265189059745404
8.46,0.33415811304982834,-83.73462441761816
8.47,0.6309439931535111,-0.9827536757995904
8.48,0.4986653869939538,-85.88063754640503
8.49,-0.10376111830169704,1.52427100736263
8.5,-0.3990278019441543,-88.38766222956724
8.51,-0.1986674915151087,3.9911832955942548
8.52,-0.05723030097502094,-90.91474311019476
8.53,-0.07446232940663514,5.334948525769205
8.54,-0.07843394301241019,-92.15822735304322
8.55,-0.06393646821100178,7.300455877368385
8.56,-0.06072445283583944,-94.26412808689949
8.57,-0.0602686938974718,9.987986337718286
8.58,-0.05599324099945166,-95.52766852721325
8.59,-0.04791979694836793,11.29163917296264
8.6,-0.04195152513641087,-97.6536254585348
8.61,-0.036460715069410385,13.97916963331254
8.62,-0.027627672787713938,-100.70216747326006
8.63,-0.018924847345551103,15.563609233071064
8.64,-0.01082970048787844,-102.78801200965104
8.65,-0.0015191964612254326,17.248329820156076
8.66,0.0117412183646137,-104.47273259673605
8.67,0.02808343172608157,20.69799578418729
8.68,0.04501162086545067,-107.34076883427363
8.69,0.06317686998038906,23.305301454676002
8.7,0.08744060774681811,-110.58987282365186
8.71,0.11673939664188003,24.689179079781546
8.72,0.1441934469768825,-110.77037860083955
8.73,0.16678606863596357,27.777833489437402
8.74,0.18371425777533268,-114.26015695980135
8.75,0.19408819932484347,30.786263109232067
8.76,0.19545547613994638,-116.46633868098411
8.77,0.1814354630834945,31.889353969823443
8.78,0.14953233739776042,-118.41178983511799
8.79,0.10421687724006468,34.0353670986103
8.8,0.05538556241496149,-120.75836493855783
8.81,0.009310504026653009,36.40199839951544
8.82,-0.024263737766429053,-123.04477144960178
8.83,-0.042580906527489984,38.74857350295528
8.84,-0.05447404453822623,-125.73230190995167
8.85,-0.06454414679549195,41.41604776583988
8.86,-0.0698830372163699,-127.55741587929377
8.87,-0.07155415332371788,43.8829600540715
8.88,-0.0740065704682675,-130.46556451176195
8.89,-0.07522192763724785,46.22953515751134
8.9,-0.07446232940663514,-132.53135285068763
8.91,-0.07263929365316461,48.3956044837635
8.92,-0.0698830372163699,-134.67736597947447
8.93,-0.06714848358616413,51.88538284272531
8.94,-0.06575950396447229,-138.42787490548517
8.95,-0.0633287896265116,54.532800908144615
8.96,-0.061180211774207065,-140.5939442317373
8.97,-0.06163597071257469,56.91948840651505
8.98,-0.06272111104202144,-142.88035074278127
8.99,-0.061961512811408714,58.925108153044825
9.0,-0.06287303068814397,-145.72833078285353
9.01,-0.06515182537998213,61.09117747929699
9.02,-0.06851576040126701,-148.25541166348106
9.03,-0.07203161506867443,64.82163020784238
9.04,-0.0740065704682675,-151.36412227060222
9.05,-0.07643728480622819,66.4261260050662
9.06,-0.07888970195077782,-153.2092924374096
9.07,-0.0805608180581258,69.9359605614933
9.08,-0.08270939591043033,-155.55586754084945
9.09,-0.08422859237165577,71.07916381701527
9.1,-0.08392475307941068,-158.7448029378318
9.11,-0.08498819060226849,75.69208923403376
9.12,-0.08650738706349392,-161.99390692721002
9.13,-0.0877444470390632,77.1762478464658
9.14,-0.08956748279253372,-163.87918948894801
9.15,-0.08820020597743083,80.22478986119106
9.16,-0.08683292916232795,-166.8675629112774
9.17,-0.08728868810069557,82.27052200265142
9.18,-0.088807884561921,-168.79295786794597
9.19,-0.08895980420804354,85.59985078189085
9.2,-0.0877444470390632,-171.82144368520594
9.21,-0.08759252739294066,88.46788701942843
9.22,-0.0877444470390632,-173.74683864187452
9.23,-0.08759252739294066,90.73423733300709
9.24,-0.08820020597743083,-177.4572351729546
9.25,-0.08804828633130829,93.04070004151632
9.26,-0.08895980420804354,-179.86397886879033
9.27,-0.09002324173090134,96.06918585877628
9.28,-0.0898713220847788,-182.7119589088626
9.29,-0.0898713220847788,99.27817745322393
9.3,-0.09078283996151407,-186.12151247796325
9.31,-0.09171606064483825,101.74508974145556
9.32,-0.09232373922932843,-188.3477503966113
9.33,-0.09217181958320589,104.31228301701367
9.34,-0.09353909639830878,-192.17848411248318
9.35,-0.09399485533667641,107.76194898104488
9.36,-0.0942986946289215,-194.18410385901294
9.37,-0.09262757852157352,110.00824309715823
9.38,-0.08956748279253372,-196.1295550131468
9.39,-0.08744060774681811,113.05678511188349
9.4,-0.08683292916232795,-199.0978722380109
9.41,-0.08759252739294066,115.42341641278863
9.42,-0.08789636668518575,-202.78821257162568
9.43,-0.08895980420804354,118.75274519202806
9.44,-0.08835212562355338,-206.47855290524046
9.45,-0.08759252739294066,121.9416805890104
9.46,-0.08865596491579845,-207.9225991227419
9.47,-0.08835212562355338,125.09050359106215
9.48,-0.0857477888328812,-211.95389481326677
9.49,-0.08240555661818524,127.53735968182848
9.5,-0.07187969542255189,-214.07985174458832
9.51,-0.05935717602073654,129.46275463849707
9.52,-0.04898323447122573,-216.30608966323638
9.53,-0.032185262171390235,132.27062228363874
9.54,-0.016016671262633845,-218.973563926121
9.55,-0.021811320621879425,135.98101881471882
9.56,-0.04592313874218593,-222.5034546800134
9.57,-0.06730040323228667,139.0696732243747
9.58,-0.08514011024839103,-225.37149091755097
9.59,-0.09596981073626946,140.8747309962515
9.6,-0.09596981073626946,-228.7208758942557
9.61,-0.09384293569055387,144.92608288424162
9.62,-0.09308333745994114,-231.4084063546056
9.63,-0.0898713220847788,148.1350744786893
9.64,-0.08605162812512629,-234.9583533059633
9.65,-0.08713676845457302,151.48445945539402
9.66,-0.07828202336628765,-237.7862771485703
9.67,0.02165940097575688,154.79373203716813
9.68,0.27464901738296926,-238.4882440598557
9.69,0.6024265052956508,157.01996995581618
9.7,0.6263647009632458,-243.56246201857604
9.71,0.08407667272553322,159.14592688713776
9.72,-0.3324869969424804,-245.90903712201586
9.73,-0.19560739578606892,162.77609862835664
9.74,-0.038305453629469834,-249.2784782961859
9.75,-0.05568940170720657,165.28312331151886
9.76,-0.06667102184120756,-252.8083690500783
9.77,-0.054929803476593854,169.3144190020437
9.78,-0.050198591640206076,-254.7538202042122
9.79,-0.04776787730224539,172.72397257114434
9.8,-0.0433405047581027,-258.8252282896676
9.81,-0.03769777504497966,174.76970471260472
9.82,-0.032966563208591884,-261.11163480071156
9.83,-0.02808343172608157,178.58038223101127
9.84,-0.021811320621879425,-265.2833238734935
9.85,-0.015408992678143673,181.3280812837571
9.86,-0.008550905796040292,-268.2516410983576
9.87,-0.00045575893836762976,184.6975224579271
9.88,0.010373941549510811,-271.580969877597
9.89,0.023807978828061422,187.96668264477063
9.9,0.04043232867518544,-273.56653342666147
9.91,0.05950909566685909,190.0926395760922
9.92,0.08225363697206271,-277.0161993906927
9.93,0.10879616943032991,192.90050722123388
9.94,0.13809495832539181,-280.4658653547239
9.95,0.1652451693681492,196.4705103700569
9.96,0.18568921317492573,-284.3567676629917
9.97,0.19790789328449598,198.69674828870492
9.98,0.2023352658286387,-286.2019378297991
9.99,0.19256900286361806,202.90854975641747
