time_s,ECG,NIBP
0.0,0.012353653827328549,104.18645089037193
0.01,-0.02060359820771319,105.28481641331945
0.02,-0.039357337752814366,106.4745986940775
0.03,-0.04760728213319901,108.51987809643568
0.04,-0.05020133680950552,110.59381051243595
0.05,-0.051583415120652426,110.5637930695728
0.06,-0.05035017601224442,110.59381051243595
0.07,-0.05141331317466512,107.84857891967769
0.08,-0.08987761571104609,105.8646988322669
0.09,-0.08011801656002406,104.704933994372
0.1,0.17701233754304677,103.1781376960139
0.11,0.7009901194137136,102.2325882458243
0.12,1.0917568148330665,100.95138920725572
0.13,0.7286104228934034,100.15729140060297
0.14,0.04029289845574458,99.33317615108707
0.15,-0.13350876485679167,99.02890843479229
0.16,-0.018307221936884478,98.26482807100271
0.17,-0.007314383677454425,97.74634496700264
0.18,-0.03219179327809884,97.80774428195002
0.19,-0.029916679750518534,97.80774428195002
0.2,-0.025940546763065113,97.10506323310783
0.21,-0.0222833549243379,96.7093787590025
0.22,-0.018456061139623375,95.8538816374024
0.23,-0.01220481462458965,95.42681529121286
0.24,-0.004720329001147914,94.93834963007595
0.25,0.00686786606923773,93.71854990645474
0.26,0.01954046104529249,93.35151844599153
0.27,0.035253628305870456,93.23008424531783
0.28,0.050669117160970625,92.34456968085455
0.29,0.0718680721796394,91.33762091571757
0.3,0.10131697157869284,91.00197132733858
0.31,0.13716595669551887,90.60492242401222
0.32,0.17684223559705944,90.60492242401222
0.33,0.21683745564732623,90.23925539277005
0.34,0.2554293346431977,90.17785607782268
0.35,0.2880889082727616,90.60492242401222
0.36,0.307778208520793,92.924452099802
0.37,0.3024199972221927,92.95583397188621
0.38,0.25893768727918604,92.86441721407567
0.39,0.19699931619655595,100.76719126241358
0.4,0.13274330609984877,111.41792576195185
0.41,0.07552526401836662,122.19145889138488
0.42,0.03280841283230284,130.21703156961755
0.43,0.00807984243439733,138.27398611993442
0.44,-0.006102407312294825,138.54823639336604
0.45,-0.016329786814781973,138.60963570831342
0.46,-0.01922151989656628,138.18256936212387
0.47,-0.01662746522025977,137.69410370098697
0.48,-0.01541548885510017,136.59573817803945
0.49,-0.012970273381532556,134.97752512187083
0.5,-0.010843999056691154,132.56657868827048
0.51,-0.012970273381532556,129.6371491506701
0.52,-0.015862006463316862,127.34900134696453
0.53,-0.015862006463316862,127.22620271706978
0.54,-0.015266649652361271,125.70077084793273
0.55,-0.018009543531406682,124.47960669509045
0.56,-0.024260790046440404,124.17533897879568
0.57,-0.02517508800612221,123.38124117214294
0.58,-0.023644170492236397,123.25980697146925
0.59,-0.028683440642110522,121.76439254519535
0.6,-0.03174527566988214,120.51321094948992
0.61,-0.03493468715714425,118.2236987165633
0.62,-0.037082224225234064,114.95861959058391
0.63,-0.03876198094185877,111.41792576195185
0.64,-0.03646560467103006,107.84857891967769
0.65,-0.03752874183345076,105.43763248607736
0.66,-0.039973957307018367,104.30788509104563
0.67,-0.029746577804531223,103.75802011496135
0.68,-0.009164242340066445,104.27786764818248
0.69,0.0018285959193636062,104.18645089037193
0.7,0.01007854029974825,104.97918426780362
0.71,0.027322625074212025,105.00920171066679
0.72,0.04363114914574558,105.00920171066679
0.73,0.0465441449707783,106.13894910569852
0.74,0.041951392429120875,108.06142987816193
0.75,0.0222833549243379,109.80107713500426
0.76,-0.010992838259430052,110.930824530036
0.77,-0.038910820144597666,110.89944265795178
0.78,-0.05417746979695894,109.49544498948843
0.79,-0.05996093596052755,107.0244636701618
0.8,-0.06346928859651586,105.55906668675107
0.81,-0.06195963382587847,103.78940198704557
0.82,-0.06072639471747046,103.81941942990872
0.83,-0.07537642481562773,102.65965459201384
0.84,-0.1179444367989526,101.43985486839262
0.85,-0.03723106342797296,100.70715637668725
0.86,0.33554735120322177,99.79162436936082
0.87,0.894927600582498,98.66187697432909
0.88,1.0343899335488456,98.20479318527639
0.89,0.4437321888511523,97.41069537862366
0.9,-0.07248469173384342,97.0450283473815
0.91,-0.07873593824887713,96.64797944405512
0.92,-0.010843999056691154,95.8852635094866
0.93,-0.03463700875166645,95.45819716329707
0.94,-0.05096679556644842,94.96973150216017
0.95,-0.04348230994300668,94.5726825988338
0.96,-0.037847682982176965,93.7799492214021
0.97,-0.03357387158924575,93.32150100312836
0.98,-0.02883227984484942,92.95583397188621
0.99,-0.02060359820771319,92.25315292304401
1.0,-0.010992838259430052,91.82608657685448
1.01,0.0004677803514651086,91.06337064228596
1.02,0.01114167746216895,90.57490498114905
1.03,0.02517508800612221,90.11782119209636
1.04,0.04822390168740301,89.44515758611732
1.05,0.07401560924772922,89.01809123992778
1.06,0.10208243033563574,88.13394110468556
1.07,0.1373360586415062,88.46959069306455
1.08,0.17348272216381003,88.46959069306455
1.09,0.2122447031056688,90.11782119209636
1.1,0.24720065300606148,90.20923794990689
1.11,0.275267474093968,90.11782119209636
1.12,0.28900320623244347,90.11782119209636
1.13,0.27465085453976396,90.17785607782268
1.14,0.2339114384758027,96.46514592843405
1.15,0.17577909843463876,106.35316449340381
1.16,0.11245864904086178,117.82664981323693
1.17,0.05951441835231086,127.40903623269085
1.18,0.0245584684519182,138.6396531511766
1.19,0.004571489798409016,138.91526785382925
1.2,-0.007165544474715527,138.97530273955556
1.21,-0.012353653827328549,138.6396531511766
1.22,-0.010525057907964944,138.3353854348818
1.23,-0.005336948555351921,136.90000589433424
1.24,-0.0027428938790454095,135.43597334014456
1.25,-0.004720329001147914,133.29927717997586
1.26,-0.0027428938790454095,130.88833074637554
1.27,-0.0004677803514651086,128.17311659648044
1.28,-0.000765458756942905,126.0978197512591
1.29,-0.006251246515033723,124.90667304127999
1.3,-0.0076333248261806355,124.14395710671147
1.31,-0.010227379502487147,123.35122372927978
1.32,-0.014182249746692155,123.22842509938502
1.33,-0.018775002288349586,122.4657091648165
1.34,-0.020454759004974295,121.67297578738481
1.35,-0.021666735370133892,121.24454501197424
1.36,-0.025472766411600005,120.8174786657847
1.37,-0.02915122099357563,109.98391065062535
1.38,-0.03083097771020034,109.7396778200569
1.39,-0.030660875764213027,106.29176517845643
1.4,-0.02915122099357563,104.64353467942463
1.41,-0.028534601439371622,103.48376984152974
1.42,-0.027769142682428718,103.54516915647712
1.43,-0.029597738601792326,103.72800267209819
1.44,-0.03265957362956395,103.78940198704557
1.45,-0.03251073442682505,103.84943687277189
1.46,-0.030065518953257434,103.84943687277189
1.47,-0.028534601439371622,103.78940198704557
1.48,-0.023048813681280804,104.15506901828772
1.49,-0.009759599151022038,105.43763248607736
1.5,0.006570187663759934,106.53599800902488
1.51,0.013586892935736563,108.09144732102509
1.52,0.028385762236632726,108.12282919310931
1.53,0.0447155490514147,108.18422850805668
1.54,0.053093069891289826,109.37401078881474
1.55,0.050817956363709525,108.21424595091985
1.56,0.037847682982176965,106.16896654856167
1.57,0.012055975421850752,104.58213536447725
1.58,-0.016180947612043074,103.11810281028758
1.59,-0.03448816954892755,101.83553934249794
1.6,-0.04363114914574558,100.55434030392934
1.61,-0.0466929841735172,99.85165925508714
1.62,-0.0466929841735172,99.08894332051861
1.63,-0.04607636461931319,98.29620994308694
1.64,-0.053412011040016034,97.83776172481318
1.65,-0.09674548178028382,97.83776172481318
1.66,-0.05860012039262906,97.0450283473815
1.67,0.2528352799668912,96.61796200119197
1.68,0.8068785807908154,95.76246487959185
1.69,1.0962007281719852,94.96973150216017
1.7,0.6272934513147106,94.14561625264426
1.71,0.029916679750518534,93.62713314864419
1.72,-0.0688274998951162,93.53571639083366
1.73,-0.00306183502777162,92.68021926923355
1.74,-0.01769060238268047,92.19175360809663
1.75,-0.03036319735873523,91.85610401971763
1.76,-0.02883227984484942,91.42903767352811
1.77,-0.02930006019631453,91.36900278780179
1.78,-0.02623822516854291,91.03335319942279
1.79,-0.020135817856248083,90.66632173895958
1.8,-0.014798869300896163,90.60492242401222
1.81,-0.0048904309471352264,89.84220648944368
1.82,0.004422650595670118,89.26232407049623
1.83,0.013884571341214359,89.01809123992778
1.84,0.025791707560326213,88.46959069306455
1.85,0.04288695313205109,88.10255923260135
1.86,0.0674454215839693,87.33984329803282
1.87,0.09415142710397731,86.91277695184328
1.88,0.12619438117933723,86.54710992060113
1.89,0.1634254446073102,86.12004357441161
1.9,0.20201732360318167,86.18007846013793
1.91,0.2392483870311546,87.70687475849603
1.92,0.26931390598441207,89.41514014325415
1.93,0.28944972384066014,102.75107134982437
1.94,0.29006634339486415,114.62297000220492
1.95,0.2578745501167653,125.09087098612211
1.96,0.20171964519770386,125.18228774393266
1.97,0.1414397680884501,132.2309290998915
1.98,0.08849553739989918,136.59573817803945
1.99,0.04029289845574458,137.26703735479745
2.0,0.010992838259430052,137.75550301593435
2.01,-0.0038060310414661106,137.75550301593435
2.02,-0.01220481462458965,137.32843666974483
2.03,-0.018307221936884478,136.93138776641845
2.04,-0.016032108409304177,136.22870671757624
2.05,-0.013438053732997664,134.9174902361445
2.06,-0.012970273381532556,132.81081151883896
2.07,-0.014947708503635061,130.125614811807
2.08,-0.011588195070385644,125.2737045017432
2.09,-0.013438053732997664,123.74690820338509
2.1,-0.016329786814781973,122.52710847976388
2.11,-0.018009543531406682,121.70299323024798
2.12,-0.020135817856248083,121.36734364186898
2.13,-0.023963111640962608,120.39041231959517
2.14,-0.028066821087906514,120.05476273121617
2.15,-0.02883227984484942,119.29204679664765
2.16,-0.028683440642110522,118.13228195875276
2.17,-0.03036319735873523,116.17978374342619
2.18,-0.03251073442682505,112.63908991479413
2.19,-0.030512036561474127,109.4040282316779
2.2,-0.036019087062813364,106.2003484206459
2.21,-0.037082224225234064,104.2164683332351
2.22,-0.03310609123778064,103.08672093820337
2.23,-0.03234063248083773,102.69103646409805
2.24,-0.03448816954892755,102.99530418039282
2.25,-0.03265957362956395,103.0567034953402
2.26,-0.02898111904758832,102.96528673752967
2.27,-0.027917981885167618,103.02668605247705
2.28,-0.03204295407535994,103.48376984152974
2.29,-0.0244096292491793,104.18645089037193
2.3,-0.009313081542805343,105.40625061399315
2.31,0.0035083526359883143,106.5960328947512
2.32,0.008249944380384643,106.53599800902488
2.33,0.025940546763065113,106.4745986940775
2.34,0.04760728213319901,106.56601545188805
2.35,0.052029932728869126,106.50461613694067
2.36,0.0457786862138354,109.31261147386736
2.37,0.03416922840020134,108.18422850805668
2.38,0.004124972190192321,106.50461613694067
2.39,-0.028236923033893826,104.64353467942463
2.4,-0.040739416063961274,103.0567034953402
2.41,-0.044545447105427384,101.77550445677161
2.42,-0.04318463153752889,101.34707368136102
2.43,-0.044396607902688484,99.45597478098182
2.44,-0.04486438825415359,98.63185953146592
2.45,-0.06500020611040168,97.80774428195002
2.46,-0.10178475193015794,97.50211213643419
2.47,0.0076333248261806355,96.6779968869183
2.48,0.40892507815349854,96.22091309786559
2.49,0.9454266157974812,95.36678040548654
2.5,0.9864849730101688,94.51128328388641
2.51,0.3561296866676865,94.14561625264426
2.52,-0.10680275933678365,93.35151844599153
2.53,-0.08147883212792255,92.62018438350722
2.54,-0.0004677803514651086,92.22313548018084
2.55,-0.012821434178793658,91.73466981904394
2.56,-0.02747146427695092,91.33762091571757
2.57,-0.0212202177619172,91.33762091571757
2.58,-0.01769060238268047,91.03335319942279
2.59,-0.013884571341214359,90.6977036110438
2.6,-0.007782164028919534,90.11782119209636
2.61,0.0004677803514651086,89.72077228876998
2.62,0.010376218705226046,89.53793877314891
2.63,0.021050115815929887,88.95805635420146
2.64,0.029448899399053426,88.62240676582248
2.65,0.041037094469439074,88.13394110468556
2.66,0.06438358655619768,87.64547544354865
2.67,0.09108959207620569,86.88275950898013
2.68,0.11994313466430352,86.85137763689592
2.69,0.15747187649775427,86.08866170232739
2.7,0.19806245335897665,85.72299467108523
2.71,0.23605897554389252,86.18007846013793
2.72,0.2705471450928201,86.97417626679066
2.73,0.3001448836946124,86.94279439470645
2.74,0.31158423956225917,87.00419370965383
2.75,0.2989116445862044,91.70465237618077
2.76,0.2572579305625613,100.79857313449779
2.77,0.19500061833120502,113.06615626098366
2.78,0.12832065550417865,123.53405724490085
2.79,0.07233585253110451,131.01112937627028
2.8,0.03387154999472354,136.86998845147107
2.81,0.011290516664907848,136.96140520928162
2.82,-0.005655889704078131,136.93138776641845
2.83,-0.01647862601752087,136.4729395481447
2.84,-0.018009543531406682,135.80164037138672
2.85,-0.016032108409304177,134.9174902361445
2.86,-0.014650030098157265,133.33065905206007
2.87,-0.016032108409304177,130.43124695732283
2.88,-0.017860704328667782,126.49350422536442
2.89,-0.01937035909930518,123.2898244143324
2.9,-0.01954046104529249,120.57324583521624
2.91,-0.015713167260577966,118.86498045045812
2.92,-0.01373573213847546,118.28509803151067
2.93,-0.01769060238268047,116.97251712085787
2.94,-0.023048813681280804,116.48405145972096
2.95,-0.029746577804531223,116.23981862915251
2.96,-0.03036319735873523,115.7827348400998
2.97,-0.02930006019631453,114.95861959058391
2.98,-0.02898111904758832,113.76883730982586
2.99,-0.03251073442682505,111.02224128784654
3.0,-0.03357387158924575,107.4201481442671
3.01,-0.03127749531841703,103.91083618771927
3.02,-0.02883227984484942,101.83553934249794
3.03,-0.03083097771020034,100.92000733517149
3.04,-0.03265957362956395,100.52432286106618
3.05,-0.03219179327809884,101.0728234079294
3.06,-0.02517508800612221,101.34707368136102
3.07,-0.00807984243439733,101.46987231125578
3.08,0.00807984243439733,101.31705623849787
3.09,0.01662746522025977,102.5682378342033
3.1,0.03174527566988214,104.61351723656146
3.11,0.04958471725530151,106.04753234788798
3.12,0.053412011040016034,107.72578028978293
3.13,0.0454810078083576,107.69576284691978
3.14,0.027322625074212025,107.69576284691978
3.15,-0.006719026866498832,107.7557977326461
3.16,-0.035104789103131556,106.56601545188805
3.17,-0.04928703884982371,104.73495143723517
3.18,-0.056154904919061444,103.11810281028758
3.19,-0.052944230688550926,101.4084729963084
3.2,-0.04745844293046011,100.15729140060297
3.21,-0.0466929841735172,99.08894332051861
3.22,-0.07903361665435493,98.23481062813956
3.23,-0.10833367685066947,97.89916103976056
3.24,0.03555130671134825,97.83776172481318
3.25,0.475456201777786,97.07504579024466
3.26,0.9858683534559648,96.22091309786559
3.27,0.9133836617221214,95.73244743672869
3.28,0.2319340033537002,94.90833218721279
3.29,-0.1594493116198568,94.54266515597064
3.3,-0.07858709904613824,94.1155988097811
3.31,0.00014883920273889818,93.47431707588628
3.32,-0.020901276613190987,93.41291776093891
3.33,-0.031128656115678135,93.38290031807574
3.34,-0.023963111640962608,92.98585141474938
3.35,-0.014352351692679467,92.68021926923355
3.36,-0.011588195070385644,92.25315292304401
3.37,-0.006251246515033723,91.7646872619071
3.38,-0.0024452154735676132,90.26927283563322
3.39,0.004571489798409016,89.47653945820153
3.4,0.02075243741045209,88.98807379706463
3.41,0.03676328307650785,88.59102489373825
3.42,0.04990365840402772,88.04252434687503
3.43,0.0718680721796394,87.27844398308544
3.44,0.09734083859123942,87.00419370965383
3.45,0.12923495346386046,86.48571060565376
3.46,0.16738031485151522,86.15006101727477
3.47,0.2085875112669416,86.15006101727477
3.48,0.24917808812816397,86.18007846013793
3.49,0.28260312051467085,86.15006101727477
3.5,0.3039509147360785,86.08866170232739
3.51,0.3120520199137243,86.12004357441161
3.52,0.29389363717957867,86.60714480632745
3.53,0.24231022205892624,90.9405720123912
3.54,0.17548142002916095,100.09589208565559
3.55,0.1179444367989526,111.93777329517297
3.56,0.0665311236242875,138.18256936212387
3.57,0.0233464920867586,138.54823639336604
3.58,0.00306183502777162,138.57961826545025
3.59,-0.009461920745544241,138.21258680498704
3.6,-0.0212202177619172,137.41985342755535
3.61,-0.019072680693827383,136.22870671757624
3.62,-0.01662746522025977,134.15340987235493
3.63,-0.020135817856248083,130.55268115799655
3.64,-0.018009543531406682,126.49350422536442
3.65,-0.014650030098157265,122.98419226881657
3.66,-0.014650030098157265,119.65771382788981
3.67,-0.014352351692679467,118.52933086207914
3.68,-0.015564328057839067,117.46098278199477
3.69,-0.016329786814781973,116.54545077466834
3.7,-0.015266649652361271,116.23981862915251
3.71,-0.01954046104529249,115.7513529680156
3.72,-0.023644170492236397,115.72133552515244
3.73,-0.024260790046440404,114.98863703344708
3.74,-0.029597738601792326,113.76883730982586
3.75,-0.02915122099357563,111.32650900414131
3.76,-0.023644170492236397,108.18422850805668
3.77,-0.022878711735293492,105.00920171066679
3.78,-0.02623822516854291,102.20257080296113
3.79,-0.016329786814781973,100.95138920725572
3.8,0.00153091751388581,100.21869071555035
3.81,0.011290516664907848,100.1272739577398
3.82,0.023644170492236397,100.31010747336089
3.83,0.0456298470110965,100.55434030392934
3.84,0.05783466163568615,100.4629235461188
3.85,0.046990662578995,100.52432286106618
3.86,0.03219179327809884,101.8969386574453
3.87,0.0018285959193636062,103.36233564085603
3.88,-0.03584898511682605,105.37623317112998
3.89,-0.051881093526130226,107.36011325854078
3.9,-0.05768582243294725,107.29871394359341
3.91,-0.06270382983957297,107.29871394359341
3.92,-0.06455368850218499,106.10893166283535
3.93,-0.06027987710925376,106.23036586350905
3.94,-0.06164069267715226,104.27786764818248
3.95,-0.10284788909257865,102.65965459201384
3.96,-0.08026685576276295,101.0728234079294
3.97,0.20171964519770386,99.88304112717135
3.98,0.7267818269740398,98.60047765938171
3.99,1.05269715548573,97.77772683908687
4.0,0.6257625338008248,97.0450283473815
4.01,-0.037996522184915865,96.7093787590025
4.02,-0.16204336629616328,96.58658012910776
4.03,-0.03310609123778064,96.22091309786559
4.04,-0.013586892935736563,95.8538816374024
4.05,-0.036933385022495165,95.39679784834969
4.06,-0.03478584795440535,94.96973150216017
4.07,-0.03174527566988214,94.48126584102326
4.08,-0.028683440642110522,93.71854990645474
4.09,-0.021964413775611688,93.35151844599153
4.1,-0.015266649652361271,92.62018438350722
4.11,-0.003976132987453423,91.88748589180186
4.12,0.006102407312294825,91.33762091571757
4.13,0.018307221936884478,91.03335319942279
4.14,0.03342503238650685,90.23925539277005
4.15,0.05035017601224442,89.47653945820153
4.16,0.073080048544799,88.89665703925408
4.17,0.10986459436455527,88.46959069306455
4.18,0.15198608873966346,88.0111424747908
4.19,0.1869207758968077,87.64547544354865
4.2,0.22276976101363374,87.27844398308544
4.21,0.26459357698326413,87.61409357146444
4.22,0.29799734662652255,88.86663959639093
4.23,0.31296631787340606,95.30538109053916
4.24,0.3009103424515553,95.36678040548654
4.25,0.26565671414568487,106.10893166283535
4.26,0.20614229579337398,117.91806657104748
4.27,0.13701711749277998,128.3559501121015
4.28,0.07431328765320702,134.88610836406028
4.29,0.028683440642110522,138.02975328936597
4.3,0.0022963762708287146,139.2809348850714
4.31,-0.013586892935736563,139.2809348850714
4.32,-0.01937035909930518,139.37235164288194
4.33,-0.018456061139623375,139.37235164288194
4.34,-0.023814272438223708,139.34233420001877
4.35,-0.02930006019631453,138.91526785382925
4.36,-0.0234953312894975,138.18256936212387
4.37,-0.02028465705898698,136.93138776641845
4.38,-0.021517896167394995,121.88582674586905
4.39,-0.021050115815929887,120.4818290774057
4.4,-0.02181557457287279,119.65771382788981
4.41,-0.01922151989656628,119.68909569997402
4.42,-0.017095245571724878,118.86498045045812
4.43,-0.022134515721599,118.49794898999491
4.44,-0.030979816912939235,118.52933086207914
4.45,-0.03493468715714425,118.07088264380539
4.46,-0.035104789103131556,117.30816670923686
4.47,-0.03463700875166645,115.38568593677344
4.48,-0.03646560467103006,112.63908991479413
4.49,-0.036614443873768956,109.06837864329891
4.5,-0.026557166317269117,105.49766737180369
4.51,-0.005953568109555927,103.02668605247705
4.52,0.007484485623441737,102.47682107639275
4.53,0.016776304422998666,102.17118893087692
4.54,0.039676278901540574,102.2325882458243
4.55,0.06134301427167447,102.96528673752967
4.56,0.056154904919061444,103.78940198704557
4.57,0.03387154999472354,103.78940198704557
4.58,0.00029767840547779636,105.80329951731952
4.59,-0.039825118104279474,107.78717960473031
4.6,-0.05417746979695894,109.80107713500426
4.61,-0.05904663800084575,110.930824530036
4.62,-0.06576566486734459,111.02224128784654
4.63,-0.06393706894798097,111.02224128784654
4.64,-0.06393706894798097,111.81497466527823
4.65,-0.07201691138237831,112.18200612574144
4.66,-0.10391102625499934,111.78495722241506
4.67,-0.09094075287346678,111.32650900414131
4.68,0.15670641774081137,103.20951956809812
4.69,0.6701591417035133,101.83553934249794
4.7,1.0501031008094235,100.55434030392934
4.71,0.673072137528546,99.88304112717135
4.72,-0.01754176317994157,99.05892587765545
4.73,-0.16495636212119602,98.66187697432909
4.74,-0.03478584795440535,98.66187697432909
4.75,-0.021666735370133892,97.83776172481318
4.76,-0.04928703884982371,97.44207725070787
4.77,-0.04380125109173289,97.07504579024466
4.78,-0.027917981885167618,96.7093787590025
4.79,-0.028236923033893826,96.28231241281297
4.8,-0.03251073442682505,95.36678040548654
4.81,-0.02517508800612221,94.84693287226541
4.82,-0.01954046104529249,94.1155988097811
4.83,-0.005655889704078131,93.71854990645474
4.84,0.01220481462458965,93.35151844599153
4.85,0.02517508800612221,92.77163602704408
4.86,0.039357337752814366,91.82608657685448
4.87,0.06546798646186679,91.46041954561233
4.88,0.0955122426718758,90.63630429609643
4.89,0.13214794928889317,90.23925539277005
4.9,0.17212190659591153,89.41514014325415
4.91,0.21330784026808952,88.98807379706463
4.92,0.2569602521570835,89.23230662763308
4.93,0.2845805556367733,90.9405720123912
4.94,0.3016758012084982,91.00197132733858
4.95,0.30074024050556797,90.97195388447541
4.96,0.25908652648192493,97.77772683908687
4.97,0.1933208616145803,108.39707946654092
4.98,0.12863959665290486,119.90194665845826
4.99,0.0688274998951162,130.3398301995123
5.0,0.0244096292491793,140.77634931134529
5.01,-0.0028917330817843077,141.11199889972428
5.02,-0.02028465705898698,141.02058214191374
5.03,-0.026557166317269117,140.95918282696636
5.04,-0.023197652884019704,140.62353323858736
5.05,-0.023963111640962608,140.19646689239784
5.06,-0.025472766411600005,138.91526785382925
5.07,-0.02623822516854291,136.96140520928162
5.08,-0.026557166317269117,133.42207580987062
5.09,-0.023197652884019704,129.60713170780693
5.1,-0.019689300248031387,126.49350422536442
5.11,-0.019072680693827383,124.90667304127999
5.12,-0.018775002288349586,123.35122372927978
5.13,-0.0222833549243379,122.92415738309025
5.14,-0.027917981885167618,122.1300595764375
5.15,-0.030660875764213027,122.1300595764375
5.16,-0.03157517372389483,121.73301067311114
5.17,-0.03280841283230284,121.21452756911107
5.18,-0.02883227984484942,120.4818290774057
5.19,-0.036019087062813364,118.62074761988967
5.2,-0.04241917278058598,111.5093425197624
5.21,-0.029448899399053426,108.244263393783
5.22,-0.008845301191340235,106.5960328947512
5.23,0.00686786606923773,104.73495143723517
5.24,0.022581033329815696,104.12505157542456
5.25,0.040739416063961274,104.61351723656146
5.26,0.05492166581065343,105.040583582751
5.27,0.0479049605386768,106.10893166283535
5.28,0.023644170492236397,106.2003484206459
5.29,-0.0048904309471352264,106.13894910569852
5.3,-0.041951392429120875,107.7557977326461
5.31,-0.0683597195436511,109.77105969214111
5.32,-0.069125178300594,111.3879083190887
5.33,-0.06789193919218599,112.85330530249942
5.34,-0.0706560958144798,112.94472206030996
5.35,-0.0715703937741616,112.91334018822575
5.36,-0.07643956197804842,112.94472206030996
5.37,-0.11245864904086178,112.85330530249942
5.38,-0.0938324859552511,108.64131229710938
5.39,0.17852199231368415,106.90166504026703
5.4,0.6982472255346682,105.040583582751
5.41,1.037600607779356,103.48376984152974
5.42,0.6037981200252132,102.26260568868746
5.43,-0.0700394762602758,101.34707368136102
5.44,-0.16891123236540104,100.95138920725572
5.45,-0.03416922840020134,100.55434030392934
5.46,-0.02608938596580401,99.88304112717135
5.47,-0.0457786862138354,99.48599222384499
5.48,-0.04212149437510818,99.08894332051861
5.49,-0.03402038919746244,98.26482807100271
5.5,-0.030660875764213027,97.80774428195002
5.51,-0.02898111904758832,97.47209469357102
5.52,-0.025642868357587317,97.10506323310783
5.53,-0.02028465705898698,96.25093054072876
5.54,-0.001679756716624708,95.79384675167607
5.55,0.015266649652361271,94.90833218721279
5.56,0.0245584684519182,94.5726825988338
5.57,0.04150487482090418,93.71854990645474
5.58,0.07384550730174191,93.38290031807574
5.59,0.10452764580920336,92.49738575361246
5.6,0.1383991958039269,92.22313548018084
5.61,0.17807547470546747,91.85610401971763
5.62,0.22217440420267817,91.52045443133865
5.63,0.2618506831042187,91.33762091571757
5.64,0.29434015478779535,92.95583397188621
5.65,0.3114354003595202,92.98585141474938
5.66,0.30074024050556797,92.89443465693883
5.67,0.2566625737516057,99.73022505441344
5.68,0.19363980276330653,110.35094211108856
5.69,0.12863959665290486,122.70994199538495
5.7,0.06942285670607179,132.68937731816524
5.71,0.025323927208861105,141.78329807648225
5.72,0.0027428938790454095,142.241746294756
5.73,-0.013438053732997664,141.3862491731559
5.74,-0.023197652884019704,141.0505995847769
5.75,-0.02181557457287279,139.70800123126094
5.76,-0.02181557457287279,137.72412114385014
5.77,-0.023644170492236397,137.75550301593435
5.78,-0.023048813681280804,134.64187553349183
5.79,-0.02502624880338331,130.91971261845976
5.8,-0.020135817856248083,128.17311659648044
5.81,-0.011907136219111854,126.00640299344856
5.82,-0.011907136219111854,124.96807235622737
5.83,-0.018775002288349586,124.14395710671147
5.84,-0.021369056964656095,123.99114103395355
5.85,-0.022581033329815696,124.08392222098514
5.86,-0.02762030347968982,123.71689076052193
5.87,-0.037082224225234064,123.35122372927978
5.88,-0.037996522184915865,121.73301067311114
5.89,-0.03570014591408715,119.29204679664765
5.9,-0.037082224225234064,115.35566849391029
5.91,-0.03676328307650785,111.75357535033085
5.92,-0.035402467508609356,109.34262891673052
5.93,-0.026557166317269117,107.39013070140395
5.94,-0.006251246515033723,106.29176517845643
5.95,0.014798869300896163,106.16896654856167
5.96,0.031128656115678135,106.13894910569852
5.97,0.0465441449707783,106.93304691235126
5.98,0.05919547720358465,108.21424595091985
5.99,0.058132340041163945,108.18422850805668
6.0,0.0465441449707783,108.15284663597247
6.01,0.018923841491088483,110.1067092805201
6.02,-0.018923841491088483,111.81497466527823
6.03,-0.04760728213319901,113.67742055201532
6.04,-0.055538285364857436,114.50017137231016
6.05,-0.055389446162118536,114.53155324439437
6.06,-0.05417746979695894,114.56157068725754
6.07,-0.05798350083842505,114.53155324439437
6.08,-0.05860012039262906,109.49544498948843
6.09,-0.08194661247938766,107.4201481442671
6.1,-0.09963721486206813,105.83331696018269
6.11,0.07826815789741202,104.24648577609825
6.12,0.5510027285394011,103.60656847142448
6.13,1.031179259318335,102.62963714915067
6.14,0.8233572068083364,102.20257080296113
6.15,0.10818483764793056,101.43985486839262
6.16,-0.15747187649775427,100.98140665011887
6.17,-0.03357387158924575,100.5843577467925
6.18,0.0010631371624207013,100.15729140060297
6.19,-0.02883227984484942,100.18730884346613
6.2,-0.02762030347968982,99.39457546603444
6.21,-0.01954046104529249,99.02890843479229
6.22,-0.01509654770637396,98.29620994308694
6.23,-0.01509654770637396,97.80774428195002
6.24,-0.01114167746216895,97.0450283473815
6.25,-0.0038060310414661106,96.64797944405512
6.26,0.009313081542805343,95.82386419453923
6.27,0.02181557457287279,95.39679784834969
6.28,0.03861314173911987,94.48126584102326
6.29,0.05385852864823273,94.20701556759164
6.3,0.07401560924772922,93.35151844599153
6.31,0.10087045397047614,93.35151844599153
6.32,0.13365760405953056,93.2914835602652
6.33,0.17471596127221806,93.32150100312836
6.34,0.21775175360700805,93.01586885761253
6.35,0.2542173582780381,92.52740319647563
6.36,0.28991750419212525,92.25315292304401
6.37,0.31371051388710053,92.16173616523348
6.38,0.31432713344130453,92.19175360809663
6.39,0.28717461031307984,108.88554512767783
6.4,0.232848301313382,119.9933634162688
6.41,0.1644885817697309,130.03419805399648
6.42,0.10437880660646445,136.86998845147107
6.43,0.05919547720358465,140.13506757745046
6.44,0.02747146427695092,141.3862491731559
6.45,0.008547622785862439,141.81331551934542
6.46,-0.004124972190192321,141.78329807648225
6.47,-0.007931003231658431,140.99056469905057
6.48,-0.0006166195542040068,140.62353323858736
6.49,0.005485787758090819,139.8307998611557
6.5,0.0036571918387272124,138.21258680498704
6.51,-0.0022963762708287146,135.37457402519718
6.52,-0.0048904309471352264,132.01807814140727
6.53,-0.00029767840547779636,128.93583253104896
6.54,0.0018285959193636062,126.89055312869078
6.55,-0.000765458756942905,125.21230518679582
6.56,-0.0024452154735676132,124.1139396638483
6.57,-0.00839878358312354,123.74690820338509
6.58,-0.00807984243439733,123.4112586150061
6.59,-0.007782164028919534,122.92415738309025
6.6,-0.013438053732997664,122.19145889138488
6.61,-0.020454759004974295,120.97029473854262
6.62,-0.022729872532554596,118.95639720826865
6.63,-0.02028465705898698,115.38568593677344
6.64,-0.018775002288349586,111.81497466527823
6.65,-0.019072680693827383,107.36011325854078
6.66,-0.017244084774463774,106.5960328947512
6.67,-0.021050115815929887,106.50461613694067
6.68,-0.019986978653509183,106.93304691235126
6.69,-0.018456061139623375,106.87164759740388
6.7,-0.022729872532554596,106.96306435521441
6.71,-0.02075243741045209,106.99308179807757
6.72,-0.016032108409304177,106.99308179807757
6.73,-0.014650030098157265,107.29871394359341
6.74,-0.017392923977202674,108.15284663597247
6.75,-0.006251246515033723,109.83109457786743
6.76,0.016032108409304177,111.78495722241506
6.77,0.030512036561474127,111.75357535033085
6.78,0.03387154999472354,111.75357535033085
6.79,0.04531090586237029,111.81497466527823
6.8,0.05904663800084575,109.80107713500426
6.81,0.06302277098829917,107.66438097483557
6.82,0.05860012039262906,106.23036586350905
6.83,0.0457786862138354,104.58213536447725
6.84,0.011758297016372956,103.81941942990872
6.85,-0.021369056964656095,103.0567034953402
6.86,-0.028683440642110522,102.26260568868746
6.87,-0.028236923033893826,101.83553934249794
6.88,-0.03570014591408715,101.34707368136102
6.89,-0.03463700875166645,100.85997244944517
6.9,-0.03021435815599633,100.18730884346613
6.91,-0.06027987710925376,99.85165925508714
6.92,-0.08209545168212655,99.85165925508714
6.93,0.10025383441627213,98.99752656270807
6.94,0.5650361390833544,98.23481062813956
6.95,1.0238648756408806,97.34929606367628
6.96,0.8244416067140055,97.0450283473815
6.97,0.12772529869322305,96.22091309786559
6.98,-0.14588368142736863,95.8538816374024
6.99,-0.024877409600644412,95.33539853340233
7.0,0.015713167260577966,94.51128328388641
7.01,-0.013884571341214359,94.14561625264426
7.02,-0.01509654770637396,93.80996666426527
7.03,-0.005953568109555927,93.38290031807574
7.04,-0.005485787758090819,93.50433451874945
7.05,-0.0021262743248414025,92.98585141474938
7.06,0.005039270149874125,92.62018438350722
7.07,0.012821434178793658,92.22313548018084
7.08,0.02075243741045209,91.79606913399132
7.09,0.03295725203504174,91.36900278780179
7.1,0.04943587805256261,90.97195388447541
7.11,0.06225731223135627,90.97195388447541
7.12,0.08362636919601237,90.60492242401222
7.13,0.11322410779780469,90.23925539277005
7.14,0.14511822267042573,89.72077228876998
7.15,0.1832635840580805,89.35374082830678
7.16,0.22476845887898467,89.41514014325415
7.17,0.25940546763065114,89.75078973163315
7.18,0.2880889082727616,90.97195388447541
7.19,0.31600689015792927,97.38067793576049
7.2,0.3265319480658942,97.44207725070787
7.21,0.30609845180416834,108.51987809643568
7.22,0.2606174439958107,120.02474528835302
7.23,0.19882791211591955,130.0041806111333
7.24,0.13350876485679167,136.04587320195517
7.25,0.08086221257371855,139.34233420001877
7.26,0.0477561213359379,140.28788365020839
7.27,0.029916679750518534,140.16644944953467
7.28,0.012821434178793658,140.19646689239784
7.29,0.0025940546763065114,139.79941798907146
7.3,0.0028917330817843077,139.00668461163977
7.31,0.006570187663759934,137.75550301593435
7.32,0.0064000857177726215,137.75550301593435
7.33,0.007484485623441737,137.8155379016607
7.34,0.008994140394079133,135.8630396863341
7.35,0.008547622785862439,131.98669626932306
7.36,0.003359513433249416,128.60018294266996
7.37,-0.0004677803514651086,125.2737045017432
7.38,0.0027428938790454095,119.68909569997402
7.39,0.001679756716624708,119.23064748170027
7.4,-0.007782164028919534,118.55934830494229
7.41,-0.008994140394079133,117.33954858132107
7.42,-0.00807984243439733,115.62991876734189
7.43,-0.011588195070385644,112.08922493870985
7.44,-0.01754176317994157,112.2120235686046
7.45,-0.018456061139623375,109.00697932835153
7.46,-0.014501190895418367,106.53599800902488
7.47,-0.01509654770637396,105.40625061399315
7.48,-0.01754176317994157,104.58213536447725
7.49,-0.016032108409304177,104.55211792161408
7.5,-0.014501190895418367,104.97918426780362
7.51,-0.01769060238268047,105.37623317112998
7.52,-0.017860704328667782,105.46764992894053
7.53,-0.014798869300896163,105.43763248607736
7.54,-0.013267951787010353,105.37623317112998
7.55,-0.017392923977202674,106.26038330637222
7.56,-0.015713167260577966,107.69576284691978
7.57,-0.01509654770637396,109.43541010376211
7.58,-0.017860704328667782,110.74662658519387
7.59,-0.018923841491088483,111.02224128784654
7.6,-0.01509654770637396,110.96084197289916
7.61,-0.008547622785862439,111.0522587307097
7.62,-0.0013820783111469117,108.579912982162
7.63,0.016329786814781973,106.99308179807757
7.64,0.030512036561474127,105.07060102561415
7.65,0.039357337752814366,103.8808187448561
7.66,0.055389446162118536,102.1111540451506
7.67,0.0692740175033329,101.37845555344524
7.68,0.0671477431784915,100.55434030392934
7.69,0.053412011040016034,100.18730884346613
7.7,0.02930006019631453,99.33317615108707
7.71,-0.0042738113929312194,98.50906090157117
7.72,-0.023644170492236397,98.32622738595009
7.73,-0.02930006019631453,97.74634496700264
7.74,-0.03584898511682605,97.41069537862366
7.75,-0.03876198094185877,96.58658012910776
7.76,-0.03204295407535994,96.18953122578138
7.77,-0.03737990263071186,95.33539853340233
7.78,-0.07888477745161604,95.42681529121286
7.79,-0.05630374412180034,94.5726825988338
7.8,0.22933994867739368,93.7485673493179
7.81,0.7601855966172982,93.38290031807574
7.82,1.0699412402601938,92.588802511423
7.83,0.635841074100573,92.13171872237031
7.84,-0.014033410543953257,91.7646872619071
7.85,-0.12725751834175794,91.36900278780179
7.86,-0.0038060310414661106,90.9405720123912
7.87,0.005039270149874125,90.60492242401222
7.88,-0.016329786814781973,90.54488753828589
7.89,-0.010525057907964944,90.60492242401222
7.9,-0.0036571918387272124,90.23925539277005
7.91,-0.0009142979596818031,90.23925539277005
7.92,0.004571489798409016,89.78217160371736
7.93,0.012502493030067447,89.78217160371736
7.94,0.02060359820771319,89.385122700391
7.95,0.03036319735873523,88.98807379706463
7.96,0.04318463153752889,88.46959069306455
7.97,0.054772826607914535,88.16395854754872
7.98,0.07080493501721871,87.27844398308544
7.99,0.09353480754977331,87.27844398308544
8.0,0.12100627182672423,86.91277695184328
8.01,0.15640873933533359,86.51572804851692
8.02,0.19546839868267013,86.18007846013793
8.03,0.23591013634115363,86.15006101727477
8.04,0.2731411997691266,86.48571060565376
8.05,0.3079270477235319,89.385122700391
8.06,0.32821170478251893,89.32372338544361
8.07,0.3305080810533476,89.41514014325415
8.08,0.3051841538444865,89.32372338544361
8.09,0.2542173582780381,96.55656268624459
8.1,0.18936599137037533,107.72578028978293
8.11,0.12923495346386046,119.23064748170027
8.12,0.08056453416824075,128.0203005237225
8.13,0.044396607902688484,137.35845411260797
8.14,0.022432194127076796,136.90000589433424
8.15,0.01220481462458965,136.53433886309207
8.16,0.007782164028919534,135.7416054856604
8.17,0.00686786606923773,134.49042388995497
8.18,0.008994140394079133,131.59101179521772
8.19,0.01220481462458965,128.1417347243962
8.2,0.014947708503635061,124.60240532498521
8.21,0.01373573213847546,121.70299323024798
8.22,0.011439355867646746,121.70299323024798
8.23,0.008994140394079133,121.73301067311114
8.24,0.0070167052719766285,119.65771382788981
8.25,0.006251246515033723,118.13228195875276
8.26,0.005039270149874125,117.33954858132107
8.27,0.0027428938790454095,116.60685008961572
8.28,-0.00029767840547779636,116.17978374342619
8.29,-0.0021262743248414025,114.92860214772075
8.3,-0.004422650595670118,113.70743799487848
8.31,-0.0013820783111469117,112.08922493870985
8.32,-0.00306183502777162,109.4040282316779
8.33,-0.009313081542805343,109.4040282316779
8.34,-0.01220481462458965,106.13894910569852
8.35,-0.008696461988601337,103.84943687277189
8.36,-0.0042738113929312194,102.65965459201384
8.37,-0.007314383677454425,101.83553934249794
8.38,-0.011439355867646746,101.80552189963477
8.39,-0.009759599151022038,101.80552189963477
8.4,-0.0022963762708287146,101.74412258468739
8.41,-0.004571489798409016,101.80552189963477
8.42,-0.005188109352613023,103.0567034953402
8.43,-0.005804728906817029,103.78940198704557
8.44,-0.004422650595670118,105.37623317112998
8.45,-0.00153091751388581,106.93304691235126
8.46,0.004422650595670118,106.99308179807757
8.47,0.01954046104529249,106.99308179807757
8.48,0.03251073442682505,106.96306435521441
8.49,0.04227033357784708,107.7557977326461
8.5,0.055687124567596336,106.10893166283535
8.51,0.07171923297690051,104.12505157542456
8.52,0.07675850312677464,102.65965459201384
8.53,0.07233585253110451,101.37845555344524
8.54,0.05996093596052755,100.15729140060297
8.55,0.035253628305870456,99.39457546603444
8.56,0.0036571918387272124,98.60047765938171
8.57,-0.015862006463316862,97.83776172481318
8.58,-0.023048813681280804,97.41069537862366
8.59,-0.022581033329815696,96.6779968869183
8.6,-0.023644170492236397,96.28231241281297
8.61,-0.022729872532554596,95.70242999386552
8.62,-0.03402038919746244,94.99974894502333
8.63,-0.07475980526142371,94.14561625264426
8.64,0.0009142979596818031,93.7485673493179
8.65,0.36986541880616197,92.95583397188621
8.66,0.9228455824676656,92.62018438350722
8.67,1.0766602671266927,91.79606913399132
8.68,0.4844716049151136,91.00197132733858
8.69,-0.0674454215839693,90.57490498114905
8.7,-0.0721657505851172,90.17785607782268
8.71,0.02502624880338331,89.78217160371736
8.72,0.015862006463316862,89.32372338544361
8.73,0.003976132987453423,88.98807379706463
8.74,0.012353653827328549,88.49960813592772
8.75,0.01937035909930518,88.46959069306455
8.76,0.018775002288349586,88.5610074508751
8.77,0.0234953312894975,88.52962557879087
8.78,0.030979816912939235,88.07254178973818
8.79,0.036933385022495165,87.67549288641182
8.8,0.04745844293046011,87.24842654022228
8.81,0.05889779879810685,86.91277695184328
8.82,0.07492990720741102,86.54710992060113
8.83,0.09568234461786312,86.18007846013793
8.84,0.12085743262398532,85.7530121139484
8.85,0.14526706187316463,85.35596321062202
8.86,0.18005290982756997,84.9288968644325
8.87,0.22079232589153125,84.5932472760535
8.88,0.25955430683339004,84.83748010662195
8.89,0.2929793392198969,85.23452900994833
8.9,0.31662350971213327,88.40819137811718
8.91,0.33248551617545014,96.58658012910776
8.92,0.32882832433672293,96.64797944405512
8.93,0.29342585682811356,107.69576284691978
8.94,0.23240178370516532,118.80358113551074
8.95,0.16891123236540104,127.62325162039615
8.96,0.11199086868939667,132.81081151883896
8.97,0.06470252770492388,134.8560909211971
8.98,0.03478584795440535,135.83302224347094
8.99,0.017392923977202674,135.77162292852356
9.0,0.0076333248261806355,135.28315726738666
9.01,0.003976132987453423,135.28315726738666
9.02,0.0070167052719766285,134.52044133281814
9.03,0.007165544474715527,134.45904201787076
9.04,0.008547622785862439,132.8722108337863
9.05,0.010843999056691154,130.8282958606492
9.06,0.010673897110703842,127.28760203201715
9.07,0.00807984243439733,123.71689076052193
9.08,0.008845301191340235,121.00031218140577
9.09,0.008696461988601337,117.33954858132107
9.1,0.006719026866498832,116.54545077466834
9.11,0.007782164028919534,116.54545077466834
9.12,0.007931003231658431,116.17978374342619
9.13,0.0024452154735676132,116.14840187134196
9.14,0.0,115.35566849391029
9.15,-0.0018285959193636062,114.50017137231016
9.16,-0.004571489798409016,112.91334018822575
9.17,-0.007782164028919534,110.13672672338326
9.18,-0.010227379502487147,106.50461613694067
9.19,-0.007782164028919534,103.84943687277189
9.2,-0.00807984243439733,101.80552189963477
9.21,-0.010227379502487147,100.95138920725572
9.22,-0.009313081542805343,100.55434030392934
9.23,-0.006719026866498832,100.85997244944517
9.24,-0.009164242340066445,101.83553934249794
9.25,-0.008845301191340235,102.62963714915067
9.26,-0.01114167746216895,102.5682378342033
9.27,-0.01373573213847546,102.5682378342033
9.28,-0.012055975421850752,104.12505157542456
9.29,-0.0021262743248414025,105.40625061399315
9.3,0.012502493030067447,106.16896654856167
9.31,0.025472766411600005,107.32873138645657
9.32,0.03416922840020134,107.26869650073024
9.33,0.044545447105427384,107.36011325854078
9.34,0.06010977516326645,107.4201481442671
9.35,0.069125178300594,102.99530418039282
9.36,0.0689763390978551,101.31705623849787
9.37,0.052944230688550926,100.18730884346613
9.38,0.025642868357587317,100.21869071555035
9.39,-0.0019774351221025044,100.15729140060297
9.4,-0.016776304422998666,99.02890843479229
9.41,-0.022134515721599,97.77772683908687
9.42,-0.027322625074212025,97.22786186300257
9.43,-0.027322625074212025,96.12949634005506
9.44,-0.025642868357587317,95.42681529121286
9.45,-0.04424776869994959,94.93834963007595
9.46,-0.08147883212792255,94.5726825988338
9.47,0.012821434178793658,93.7485673493179
9.48,0.40405590994961177,93.38290031807574
9.49,0.9597789674901608,92.55878506855984
9.5,1.0568221276759224,91.85610401971763
9.51,0.44449764760809524,91.36900278780179
9.52,-0.04958471725530151,90.66632173895958
9.53,-0.044545447105427384,89.75078973163315
9.54,0.01647862601752087,89.385122700391
9.55,0.00014883920273889818,89.41514014325415
9.56,-0.00961075994828314,88.95805635420146
9.57,-0.004571489798409016,88.49960813592772
9.58,-0.0019774351221025044,88.19397599041189
9.59,0.001679756716624708,88.04252434687503
9.6,0.007314383677454425,87.61409357146444
9.61,0.012970273381532556,87.27844398308544
9.62,0.022729872532554596,87.24842654022228
9.63,0.035253628305870456,86.91277695184328
9.64,0.04639530576803941,86.54710992060113
9.65,0.06010977516326645,86.12004357441161
9.66,0.08086221257371855,85.78302955681156
9.67,0.10467648501194225,85.32594576775887
9.68,0.13291340804583607,84.99029617937987
9.69,0.16906007156813993,84.53184796110612
9.7,0.2088851896724194,84.13616348700081
9.71,0.24628635504637966,84.5932472760535
9.72,0.2789246659326952,84.86749754948512
9.73,0.307161588966589,88.83525772430671
9.74,0.3233425365786321,88.92667448211725
9.75,0.31249853752194096,88.83525772430671
9.76,0.27373655658008217,97.41069537862366
9.77,0.2136267814168157,108.579912982162
9.78,0.15166714759093725,119.20063003883712
9.79,0.09842523849690853,127.22620271706978
9.8,0.058132340041163945,131.9566788264599
9.81,0.030065518953257434,135.28315726738666
9.82,0.01662746522025977,135.40595589728142
9.83,0.013586892935736563,134.97752512187083
9.84,0.010843999056691154,134.9174902361445
9.85,0.004571489798409016,134.49042388995497
9.86,0.006251246515033723,133.72634352616538
9.87,0.01114167746216895,132.7193947610284
9.88,0.009461920745544241,130.796913988565
9.89,0.010227379502487147,127.71466837820668
9.9,0.009313081542805343,121.76439254519535
9.91,0.009164242340066445,119.62769638502665
9.92,0.009313081542805343,118.52933086207914
9.93,0.0076333248261806355,118.1022645158896
9.94,0.0019774351221025044,117.61379885475269
9.95,-0.000765458756942905,117.33954858132107
9.96,-0.0013820783111469117,116.9424996779947
9.97,-0.005804728906817029,116.9424996779947
9.98,-0.007165544474715527,116.17978374342619
9.99,-0.006719026866498832,114.59295255934175
