time_s,ECG,NIBP
0.0,-0.0622690451502908,72.32569929840759
0.01,1.350716095703693,72.41692792300941
0.02,2.598904439879495,72.3868136197428
0.03,1.5372986358609666,71.95901337039636
0.04,-0.30471966459028693,71.68444178178892
0.05,-0.5073607682398807,71.5932131571871
0.06,-0.16249469491879312,71.19641292590924
0.07,-0.16221395080179452,71.19641292590924
0.08,-0.20264110364959378,70.8607270159666
0.09,-0.2003390018902052,70.79961269463139
0.1,-0.19803690013081665,70.46392678468875
0.11,-0.20067589483060355,70.40281246335356
0.12,-0.19758770954361887,70.0671265534109
0.13,-0.1852349683956802,70.0060122320757
0.14,-0.17439824547953403,69.97589792880908
0.15,-0.16934485137355912,69.57909769753122
0.16,-0.1669304519673711,69.12118314491818
0.17,-0.15716055669581963,69.21241176952
0.18,-0.14722221495406898,68.84661155631073
0.19,-0.14054050496950216,68.81561153824215
0.2,-0.13655393850812195,68.38869700369769
0.21,-0.13380264616153562,67.86966812974943
0.22,-0.1303214191107529,67.93078245108462
0.23,-0.11751948737561646,67.56498223787536
0.24,-0.10404376975968337,67.22929632793272
0.25,-0.09202792155214304,67.25941063119934
0.26,-0.06990528513265289,67.25941063119934
0.27,-0.0442452728389803,67.25941063119934
0.28,-0.021841892302491544,67.13718198852892
0.29,0.0,67.59509654114198
0.3,0.024593184649077882,69.54809767946264
0.31,0.05968619927390363,69.64021201886644
0.32,0.08102275216579768,110.44155008593205
0.33,0.06973683866245373,110.38043576459684
0.34,0.029758876401852232,110.41143578266542
0.35,-0.02504237523627565,111.11292190581733
0.36,-0.08085430569559852,110.7161216745395
0.37,-0.12863695440876124,109.98452124812096
0.38,-0.15946265845520818,109.09880644616148
0.39,-0.17821636547071507,107.63471987852245
0.4,-0.19135519014624983,105.49837577619617
0.41,-0.1918043807334476,101.59148778475287
0.42,-0.18877234426986264,97.62437118677634
0.43,-0.18506652192548106,93.93182617740726
0.44,-0.17928319311530977,91.947825021018
0.45,-0.1724330366605438,90.33050979263999
0.46,-0.16816572608216498,89.04888047420462
0.47,-0.16782883314176664,88.77430888559718
0.48,-0.17501588253693096,89.10999479553982
0.49,-0.1777671748835173,89.99482388269735
0.5,-0.17484743606673178,90.81942436332163
0.51,-0.17759872841331814,91.55191050454212
0.52,-0.18141684840449918,91.58202480780874
0.53,-0.18006927664290587,92.07005366368841
0.54,-0.18343820604688915,91.27645320113272
0.55,-0.1918043807334476,90.48373845337898
0.56,-0.19865453718821358,88.80530890366576
0.57,-0.19348884543543923,87.15699365721916
0.58,-0.18983917191445734,85.56979273210776
0.59,-0.19607169131182642,83.95247750372974
0.6,-0.20859287892996423,83.98347752179832
0.61,-0.21639756538252547,84.04459184313353
0.62,-0.2201595365503068,83.86124887912791
0.63,-0.22291082889689315,83.12876273790742
0.64,-0.22341616830749061,82.73196250662957
0.65,-0.2277957765326689,82.64073388202775
0.66,-0.2381833088616173,83.15887704117405
0.67,-0.2435174470845908,83.06764841657221
0.68,-0.2476724600161702,83.06764841657221
0.69,-0.2476724600161702,83.18987705924263
0.7,-0.24598799531417856,87.12687935395253
0.71,-0.2479532041331688,87.03476501454875
0.72,-0.2507044964797551,86.45550753406725
0.73,-0.2548033605879348,85.60079275017634
0.74,-0.261204326455503,84.71596366301881
0.75,-0.2610920288087035,84.471506377678
0.76,-0.2705250311398567,83.52556296918527
0.77,-0.28259702817079674,82.67084818529437
0.78,-0.27967728935401126,82.3050479720851
0.79,-0.2709742217270545,81.5114475095294
0.8,-0.2770944434776241,80.93130431424593
0.81,-0.2832146652281937,80.22981819109403
0.82,-0.27602761583302937,79.8020179417476
0.83,-0.2723779423120475,79.49733204987353
0.84,-0.2757468717160308,78.70373158731783
0.85,-0.271479561137652,78.33704565930661
0.86,-0.26872826879106565,78.36804567737519
0.87,-0.2683913758506673,77.94024542802876
0.88,-0.26446095821268684,77.54433091155288
0.89,-0.25575789058573,77.17764498354164
0.9,-0.25283815176894453,76.7808447522638
0.91,-0.2540734258837384,76.29281589638413
0.92,-0.2532873423561423,76.29281589638413
0.93,-0.25132213353715205,75.89601566510628
0.94,-0.24048541062100587,75.4691011305618
0.95,-0.19803690013081665,75.13341522061916
0.96,-0.1428426067288907,74.70561497127272
0.97,-0.10286464446828923,74.27870043672826
0.98,-0.1043806627000817,74.30881473999487
0.99,-0.1457061967222765,73.97312883005223
1.0,-0.1727137807775424,73.48509997417256
1.01,-0.1918043807334476,73.21052838556511
1.02,-0.2273465859454711,73.11929976096329
1.03,-0.2411030476784028,72.84384245755389
1.04,-0.24475272119938468,72.72249952968544
1.05,-0.24840239472036657,72.44792794107799
1.06,-0.24413508414198776,72.44792794107799
1.07,-0.25238896118174675,72.05112770980016
1.08,-0.35856638623061954,71.89789904906115
1.09,-0.4281347784228741,71.68444178178892
1.1,0.24014851768060755,71.5320988358519
1.11,1.827419606367326,71.28764155051107
1.12,2.5192292594752907,71.22652722917587
1.13,0.9245465260998091,70.79961269463139
1.14,-0.5354351799397413,70.76861267656281
1.15,-0.38377720793709436,70.49404108795538
1.16,-0.13868759379731135,70.40281246335356
1.17,-0.19270276190784313,69.97589792880908
1.18,-0.22566212124347948,70.0671265534109
1.19,-0.21864351831851433,69.57909769753122
1.2,-0.21134417127655056,69.54809767946264
1.21,-0.20157427600499908,69.57909769753122
1.22,-0.18922153485706042,69.15129744818479
1.23,-0.1727137807775424,69.24341178758858
1.24,-0.1618770578613962,68.72438291364033
1.25,-0.15182641847284611,68.84661155631073
1.26,-0.1375084685059172,68.81561153824215
1.27,-0.1258856620621749,68.84661155631073
1.28,-0.11914780325420837,68.84661155631073
1.29,-0.11016399151025298,68.44981132503288
1.3,-0.10179781682369453,68.4188113069643
1.31,-0.09477921389872937,67.62609655921057
1.32,-0.08865899214815977,67.22929632793272
1.33,-0.07535172100242585,67.29041064926793
1.34,-0.06271823573748857,66.83249609665486
1.35,-0.0460981840111711,66.83249609665486
1.36,-0.02026972524729935,67.1681820065975
1.37,0.006569412337767379,68.81561153824215
1.38,0.02959042993165307,68.87672585957736
1.39,0.05463280516792872,75.43810111249321
1.4,0.08484087215697872,86.42450751599867
1.41,0.11398211150143402,96.86177074228922
1.42,0.1292545914661582,105.16268986625352
1.43,0.1144313020886318,110.41143578266542
1.44,0.061314515152495544,110.38043576459684
1.45,-0.010555978799147584,110.41143578266542
1.46,-0.07293732159623784,111.57083645843039
1.47,-0.11353292091423625,111.17403622715254
1.48,-0.14346024378628766,110.38043576459684
1.49,-0.16754808902476803,109.92340692678574
1.5,-0.1867509866274727,101.98828801603072
1.51,-0.1936572919056384,98.78377186254131
1.52,-0.19528560778423032,96.06817027973354
1.53,-0.1957909471948278,94.32862640868511
1.54,-0.19242201779084453,93.23034005425535
1.55,-0.18720017721467047,92.8946541443127
1.56,-0.19090599955905205,92.77242550164229
1.57,-0.1979246024840172,93.16922573292014
1.58,-0.2044940148217846,93.62714028553319
1.59,-0.2069084142279726,93.96282619547584
1.6,-0.2014058295347999,94.84765528263337
1.61,-0.19713851895642112,95.21345549584262
1.62,-0.2039886754111871,95.67137004845569
1.63,-0.2126917430381439,95.58014142385386
1.64,-0.21482539832733327,95.18334119257601
1.65,-0.21224255245094611,94.48096935462213
1.66,-0.21898041125891266,93.19934003618677
1.67,-0.23088396181965354,90.78842434525305
1.68,-0.24200142885279835,88.71319456426197
1.69,-0.24626873943117716,88.80530890366576
1.7,-0.24278751238039445,88.77430888559718
1.71,-0.23835175533181646,88.77430888559718
1.72,-0.24065385709120504,86.66896480133948
1.73,-0.2421698753229975,85.23410682216512
1.74,-0.24093460120820365,84.34927773500759
1.75,-0.23588120710222873,84.34927773500759
1.76,-0.23453363534063543,84.34927773500759
1.77,-0.23801486239141814,84.34927773500759
1.78,-0.2421698753229975,84.2881634136724
1.79,-0.24076615473800447,84.34927773500759
1.8,-0.24076615473800447,84.4103920563428
1.81,-0.23863249944881507,89.62902366948808
1.82,-0.23515127239803235,89.23222343821023
1.83,-0.2360496535724279,88.77430888559718
1.84,-0.23880094591901424,87.95059411977486
1.85,-0.24048541062100587,87.09587933588395
1.86,-0.2432367029675922,86.36339319466346
1.87,-0.24261906591019528,85.56979273210776
1.88,-0.24733556707577187,84.471506377678
1.89,-0.25098524059675376,83.55567727245189
1.9,-0.25132213353715205,82.70184820336296
1.91,-0.25497180705813394,81.96936206214245
1.92,-0.2702442870228581,81.02253293884777
1.93,-0.2630572376276938,80.5956184043033
1.94,-0.21314093362534164,79.8631322630828
1.95,-0.15991184904240596,79.52744635314016
1.96,-0.14694147083707038,79.10053181859568
1.97,-0.17580196606452705,78.76484590865304
1.98,-0.2044940148217846,78.70373158731783
1.99,-0.22218089419269677,78.36804567737519
2.0,-0.25665627176012556,78.00135974936397
2.01,-0.27540997877563245,77.97124544609734
2.02,-0.27406240701403917,77.5133308934843
2.03,-0.2741747046608386,77.54433091155288
2.04,-0.2699073940824598,77.11653066220644
2.05,-0.2598567546939097,76.81184477033239
2.06,-0.2882119105107689,76.26181587831555
2.07,-0.43779237604762616,75.92612996837289
2.08,-0.31050299340045817,75.4691011305618
2.09,0.8305533957286759,75.10241520255057
2.1,2.3898062215389335,75.07230089928395
2.11,2.0190555406305744,74.7366149893413
2.12,0.04789494635996218,74.27870043672826
2.13,-0.6502033749687715,74.36992906133008
2.14,-0.2766452528904263,73.9430145267856
2.15,-0.193938036022637,73.9430145267856
2.16,-0.24857084119056572,73.57632859877438
2.17,-0.25362423529654066,73.57632859877438
2.18,-0.24991841295215902,73.17952836749653
2.19,-0.2456511023737802,73.14941406422992
2.2,-0.24093460120820365,72.72249952968544
2.21,-0.2371164812170226,72.41692792300941
2.22,-0.224146103011687,72.3868136197428
2.23,-0.21729594655692103,72.3868136197428
2.24,-0.21881196478871348,72.3868136197428
2.25,-0.20994045069155753,72.44792794107799
2.26,-0.19652088189902417,72.3868136197428
2.27,-0.18450503369148383,72.3868136197428
2.28,-0.17641960312192398,71.95901337039636
2.29,-0.1669304519673711,72.02012769173157
2.3,-0.15014195377085446,71.62332746045372
2.31,-0.13397109263173476,70.43292676662017
2.32,-0.12773857323436572,69.9448979107405
2.33,-0.1152173856162279,70.0060122320757
2.34,-0.0916910286117447,69.97589792880908
2.35,-0.06103377103549694,70.0060122320757
2.36,-0.02683913758506673,70.40281246335356
2.37,0.005951775280370447,74.21758611539305
2.38,0.030039620518850837,74.24770041865968
2.39,0.0582824786889106,83.06764841657221
2.4,0.07843990628941051,93.23034005425535
2.41,0.06867001101785902,102.44620256864378
2.42,0.029309685814654464,108.33620600167436
2.43,-0.02779366758286199,110.7161216745395
2.44,-0.08865899214815977,110.80823601394327
2.45,-0.1388560402675105,110.74712169260808
2.46,-0.1695132978437583,109.92340692678574
2.47,-0.18433658722128468,109.55672099877452
2.48,-0.191523636616449,108.36632030494097
2.49,-0.19242201779084453,99.21157211188775
2.5,-0.187087879567871,96.495084814278
2.51,-0.17529662665392956,94.3897407300203
2.52,-0.1702993813713544,93.62714028553319
2.53,-0.16934485137355912,93.13822571485156
2.54,-0.16311233197619007,93.19934003618677
2.55,-0.15317399023443942,93.23034005425535
2.56,-0.15182641847284611,93.53502594612941
2.57,-0.15592528258102575,93.53502594612941
2.58,-0.15794664022341573,94.45085505135552
2.59,-0.15760974728301738,94.81665526456479
2.6,-0.16434760609098392,95.61025572712047
2.61,-0.16648126138017333,95.64125574518906
2.62,-0.16524598726537948,95.58014142385386
2.63,-0.16249469491879312,95.27456981717783
2.64,-0.15699211022562046,93.99294049874246
2.65,-0.15654291963842268,92.40573957363107
2.66,-0.15839583081061348,90.02582390076593
2.67,-0.15485845493643105,89.99482388269735
2.68,-0.15137722788564834,90.11705252536775
2.69,-0.1515456743558475,89.96470957943072
2.7,-0.1526125020004422,90.02582390076593
2.71,-0.14722221495406898,87.91959410170628
2.72,-0.1478398520114659,86.79119344400989
2.73,-0.15379162729183635,85.96659296338561
2.74,-0.15581298493422632,86.02770728472082
2.75,-0.15272479964724164,85.96659296338561
2.76,-0.15120878141544916,86.02770728472082
2.77,-0.14828904259866368,85.99759298145419
2.78,-0.1475591078944673,85.96659296338561
2.79,-0.15289324611744082,91.21622459459948
2.8,-0.15643062199162325,91.1852245765309
2.81,-0.15856427728081265,90.88053868465683
2.82,-0.1672111960843697,89.99482388269735
2.83,-0.17641960312192398,88.77430888559718
2.84,-0.1629438855059909,87.91959410170628
2.85,-0.11976544031160531,86.73007912267468
2.86,-0.08130349628279629,85.99759298145419
2.87,-0.07001758277945233,84.77619226955207
2.88,-0.1054474903446764,84.38027775307617
2.89,-0.1439094343734854,83.46444864785006
2.9,-0.15440926434923327,83.18987705924263
2.91,-0.17973238370250755,82.21293363268131
2.92,-0.21179336186374834,82.3661622934203
2.93,-0.21971034596310904,81.81613340140346
2.94,-0.22077717360770374,81.389218866859
2.95,-0.22111406654810206,81.4503331881942
2.96,-0.22066487596090428,81.05353295691636
2.97,-0.23481437945763403,80.5956184043033
2.98,-0.35340069447784517,80.5956184043033
2.99,-0.3746249497229398,80.22981819109403
3.0,0.4530087071889506,80.16870386975883
3.01,2.1015943110281645,79.924246584418
3.02,2.4945237771794133,79.46633203180495
3.03,0.7072505795428882,79.03941749726049
3.04,-0.5497531299066702,78.73384589058446
3.05,-0.29478132284853625,78.30693135603998
3.06,-0.1025277515278909,77.84901680342693
3.07,-0.16142786727419842,77.54433091155288
3.08,-0.1799008301727067,77.14753068027503
3.09,-0.1666497078503725,77.14753068027503
3.1,-0.16176476021459676,76.65861610959338
3.11,-0.15867657492761209,76.26181587831555
3.12,-0.14710991730726952,76.29281589638413
3.13,-0.13369034851473616,76.35393021771932
3.14,-0.13531866439332807,76.32293019965074
3.15,-0.13531866439332807,75.92612996837289
3.16,-0.12223598854119304,75.89601566510628
3.17,-0.10404376975968337,75.56032975516362
3.18,-0.08225802628059155,75.49921543382843
3.19,-0.06485189102667797,75.530215451897
3.2,-0.05249914987873931,75.13341522061916
3.21,-0.043627635781583365,74.67550066800611
3.22,-0.034924568154626585,74.27870043672826
3.23,-0.016788498196516635,74.33981475806345
3.24,0.0027512923465863384,73.97312883005223
3.25,0.027625221112662825,73.97312883005223
3.26,0.056598013986918966,73.9430145267856
3.27,0.08405478862938262,73.9430145267856
3.28,0.11168000974204545,73.91201450871702
3.29,0.1420565232012946,73.91201450871702
3.3,0.17563351959432788,73.9430145267856
3.31,0.19775615601381805,73.91201450871702
3.32,0.1860210519232763,75.01118657794875
3.33,0.1388560402675105,80.6567327256385
3.34,0.07265657747923922,80.62661842237188
3.35,0.0158901170221211,80.6567327256385
3.36,-0.02824285817005976,112.24220827831569
3.37,-0.06271823573748857,111.90652236837303
3.38,-0.08865899214815977,111.54072215516376
3.39,-0.09826044094951208,111.17403622715254
3.4,-0.09994490565150373,104.70477531364047
3.41,-0.103313835055487,103.30091735253468
3.42,-0.09932726859410679,101.62248780282145
3.43,-0.08938892685235614,100.82888734026577
3.44,-0.08484087215697872,100.76777301893055
3.45,-0.0795067339340052,99.97417255637485
3.46,-0.07462178629822946,100.3709727876527
3.47,-0.06513263514367658,100.40197280572129
3.48,-0.05463280516792872,100.79877303699914
3.49,-0.049579411061953814,101.25580187481023
3.5,-0.04514365401337584,102.0192880340993
3.51,-0.032510168748438574,102.38508824730857
3.52,-0.024705482295877323,102.87311710318825
3.53,-0.02442473817887872,102.87311710318825
3.54,-0.02824285817005976,102.32397392597338
3.55,-0.03161178757404303,101.1645732502084
3.56,-0.038461944028809016,99.18057209381917
3.57,-0.04671582106856803,96.83077072422064
3.58,-0.04834413694715995,94.29851210541848
3.59,-0.041213236375395354,94.35874071195173
3.6,-0.036440586386419054,94.35874071195173
3.61,-0.0421116175497909,94.3897407300203
3.62,-0.046378928128169704,94.35874071195173
3.63,-0.043627635781583365,92.40573957363107
3.64,-0.047782648713162734,91.21622459459948
3.65,-0.049579411061953814,90.88053868465683
3.66,-0.049747857532152974,90.88053868465683
3.67,-0.05800173457191199,90.81942436332163
3.68,-0.06743473690306516,90.81942436332163
3.69,-0.06546952808407491,95.51902710251865
3.7,-0.06440270043948021,95.67137004845569
3.71,-0.06805237396046208,95.67137004845569
3.72,-0.07490253041522807,95.21345549584262
3.73,-0.0795067339340052,94.81665526456479
3.74,-0.08192113334019321,93.53502594612941
3.75,-0.08208957981039239,93.5961402674646
3.76,-0.08545850921437566,93.19934003618677
3.77,-0.0924771121393408,92.40573957363107
3.78,-0.10348228152568616,91.1852245765309
3.79,-0.11459974855883096,90.48373845337898
3.8,-0.12010233325200363,89.53779504488625
3.81,-0.1194846961946067,88.31639433298412
3.82,-0.11914780325420837,87.98070842304148
3.83,-0.12038307736900224,87.15699365721916
3.84,-0.13290426498714006,86.33327889139684
3.85,-0.13442028321893254,85.96659296338561
3.86,-0.09595833919012352,85.66190707151155
3.87,-0.04396452872198169,85.20399251889849
3.88,-0.013588015262732529,84.5937350203484
3.89,-0.027456774642463662,84.83730659088727
3.9,-0.06788392749026292,84.44050635960942
3.91,-0.08456012803998011,84.44050635960942
3.92,-0.10404376975968337,84.01359182506495
3.93,-0.133521902044537,83.55567727245189
3.94,-0.1380699567399144,83.55567727245189
3.95,-0.1274016802939674,83.18987705924263
3.96,-0.12509957853457881,83.12876273790742
3.97,-0.11718259443521813,82.7620768098962
3.98,-0.10971480092305522,82.27404795401652
3.99,-0.15502690140663022,82.3050479720851
4.0,-0.29798180578232036,81.87724772273867
4.01,-0.031274894633644704,81.4503331881942
4.02,1.2870994787918089,81.389218866859
4.03,2.7063171390431617,81.02253293884777
4.04,1.9459497725641375,80.56550410103668
4.05,0.003986566461380204,80.25993249436065
4.06,-0.4316721542970565,80.29093251242924
4.07,-0.059966943390902236,79.924246584418
4.08,-0.03874268814580762,79.98536090575321
4.09,-0.10572823446167501,79.46633203180495
4.1,-0.10454910917028086,79.10053181859568
4.11,-0.08573925333137426,79.13064612186231
4.12,-0.08394249098258319,78.76484590865304
4.13,-0.08882743861835893,78.73384589058446
4.14,-0.08804135509076283,78.33704565930661
4.15,-0.0795067339340052,78.36804567737519
4.16,-0.06608716514147184,77.94024542802876
4.17,-0.05171306635114322,77.97124544609734
4.18,-0.043009998724186434,77.57444521481949
4.19,-0.041213236375395354,77.54433091155288
4.2,-0.03891113461600679,77.20864500161022
4.21,-0.030825704046446935,76.81184477033239
4.22,-0.021224255245094612,76.41504453905453
4.23,-0.011005169386345354,75.95712998644147
4.24,-0.0008983811743955391,75.4691011305618
4.25,0.010668276445947027,75.13341522061916
4.26,0.02105580877489545,75.07230089928395
4.27,0.03526146109502491,75.16352952388579
4.28,0.05890011574630753,74.67550066800611
4.29,0.0895573733225553,74.79772931067652
4.3,0.12285362559858998,75.49921543382843
4.31,0.15687981257882103,75.49921543382843
4.32,0.1841681407510855,75.56032975516362
4.33,0.19758770954361887,113.00569443760476
4.34,0.17288222724774155,113.95163784609748
4.35,0.11353292091423625,113.49372329348444
4.36,0.049579411061953814,113.09692306220659
4.37,-0.005334138222973513,112.3644369209861
4.38,-0.05738409751451506,112.3644369209861
4.39,-0.09489151154552881,111.57083645843039
4.4,-0.11308373032703849,109.98452124812096
4.41,-0.11370136738443541,108.39732032300955
4.42,-0.11639651090762203,106.3522048452851
4.43,-0.12330281618578774,104.43020372503302
4.44,-0.12251673265819164,102.84300279992163
4.45,-0.1218990956007947,102.04940233736593
4.46,-0.12863695440876124,101.56137348148626
4.47,-0.13105135381494926,101.59148778475287
4.48,-0.12880540087896042,101.56137348148626
4.49,-0.11993388678180447,102.38508824730857
4.5,-0.11701414796501897,102.84300279992163
4.51,-0.12223598854119304,103.63660326247732
4.52,-0.12509957853457881,104.0635177970218
4.53,-0.12498728088777937,104.46031802829965
4.54,-0.12251673265819164,104.46031802829965
4.55,-0.11965314266480587,104.03340349375517
4.56,-0.1226851791283908,102.78188847858642
4.57,-0.12801931735136432,100.73765871566394
4.58,-0.1388560402675105,98.05217143612278
4.59,-0.14188807673109546,96.03717026166495
4.6,-0.14374098790328627,96.06817027973354
4.61,-0.15317399023443942,96.06817027973354
4.62,-0.15547609199382798,96.03717026166495
4.63,-0.14604308966267482,96.06817027973354
4.64,-0.13425183674873337,93.99294049874246
4.65,-0.1284685079385621,93.13822571485156
4.66,-0.1345887296891317,92.86365412624411
4.67,-0.1391367843845091,93.16922573292014
4.68,-0.13717157556551887,93.16922573292014
4.69,-0.13121980028514843,93.13822571485156
4.7,-0.12543647147497713,99.18057209381917
4.71,-0.1234712626559869,98.44808595259866
4.72,-0.125268025004778,97.25857097356707
4.73,-0.1260541085323741,96.4339704929428
4.74,-0.12296592324538941,95.54914140578528
4.75,-0.11965314266480587,94.75554094322958
4.76,-0.12128145854339778,94.02305480200909
4.77,-0.1194846961946067,93.13822571485156
4.78,-0.11824942207981283,92.8335398229775
4.79,-0.12128145854339778,91.947825021018
4.8,-0.13077060969795065,91.61213911107536
4.81,-0.12465038794738105,90.75831004198642
4.82,-0.08590769980157342,90.42262413204378
4.83,-0.0460981840111711,90.3916241139752
4.84,-0.03279091286543718,89.5980236514195
4.85,-0.056766460457118126,89.1409948136084
4.86,-0.0884905456779606,88.77430888559718
4.87,-0.09932726859410679,88.37750865431933
4.88,-0.12100071442639918,87.88947979843965
4.89,-0.14267416025869156,87.4315652458266
4.9,-0.1428426067288907,87.55379388849701
4.91,-0.133521902044537,87.03476501454875
4.92,-0.13413953910193394,87.06576503261734
4.93,-0.1377892126229158,86.76019342594131
4.94,-0.13902448673770967,86.76019342594131
4.95,-0.18158529487469835,86.76019342594131
4.96,-0.32549472924818373,86.36339319466346
4.97,-0.09534070213272658,85.96659296338561
4.98,1.1853016619681145,85.96659296338561
4.99,2.6681359391313513,85.56979273210776
5.0,2.0379776941162806,85.1729925008299
5.01,0.08287566333798849,85.20399251889849
5.02,-0.441442049568608,84.77619226955207
5.03,-0.06867001101785902,84.34927773500759
5.04,-0.022403380536488757,84.01359182506495
5.05,-0.0763062510002211,84.04459184313353
5.06,-0.06715399278606654,83.52556296918527
5.07,-0.0460981840111711,83.64779161185568
5.08,-0.04228006401999006,83.06764841657221
5.09,-0.04042715284779926,82.70184820336296
5.1,-0.038461944028809016,82.27404795401652
5.11,-0.034924568154626585,82.39627659668693
5.12,-0.029309685814654464,81.87724772273867
5.13,-0.021954189949290985,81.78601909813685
5.14,-0.012970378205335595,81.4503331881942
5.15,-0.004435757048577974,81.35821884879041
5.16,-0.00044919058719776955,80.96230433231452
5.17,0.01038753232894842,80.5345040829681
5.18,0.027176030525465057,80.19881817302544
5.19,0.04564899342397333,79.83301795981617
5.2,0.06636790925847046,79.83301795981617
5.21,0.08607614627177258,79.52744635314016
5.22,0.09612678566032268,79.10053181859568
5.23,0.11246609326964155,79.13064612186231
5.24,0.1420565232012946,79.1616461399309
5.25,0.17838481194091424,80.25993249436065
5.26,0.21757669067391963,80.25993249436065
5.27,0.2558701882325295,80.29093251242924
5.28,0.2842814928727884,80.25993249436065
5.29,0.2987678893099165,85.66190707151155
5.3,0.2677737387932704,94.35874071195173
5.31,0.19882298365841275,103.23980303119947
5.32,0.12970378205335595,110.07574987272278
5.33,0.06867001101785902,113.98175214936411
5.34,0.011454359973543124,113.46272327541585
5.35,-0.02397554759168095,113.49372329348444
5.36,-0.03756356285441348,113.18815168680841
5.37,-0.05373442399353318,112.24220827831569
5.38,-0.0712528568942462,111.08280760255072
5.39,-0.07568861394282417,110.01463555138757
5.4,-0.07754152511501497,108.39732032300955
5.41,-0.08208957981039239,107.54260553911865
5.42,-0.08253877039759015,106.32209054201849
5.43,-0.07063521983684926,105.95540461400726
5.44,-0.058114032218711434,105.589604400798
5.45,-0.04941096459175465,105.95540461400726
5.46,-0.04913022047475604,105.95540461400726
5.47,-0.045312100483575,106.26097622068328
5.48,-0.0413255340221948,106.71889077329634
5.49,-0.04149398049239396,107.05457668323898
5.5,-0.04087634343499703,107.54260553911865
5.51,-0.04014640873080065,107.54260553911865
5.52,-0.04514365401337584,107.1458053078408
5.53,-0.05446435869772956,106.38320486335368
5.54,-0.06939994572205539,105.28403279412197
5.55,-0.07215123806864174,102.84300279992163
5.56,-0.06850156454765985,99.97417255637485
5.57,-0.06990528513265289,98.1434000607246
5.58,-0.06805237396046208,96.46497051101139
5.59,-0.06299897985448717,95.61025572712047
5.6,-0.06653635572866962,95.61025572712047
5.61,-0.07400414924083253,95.61025572712047
5.62,-0.07933828746380604,95.7014843517223
5.63,-0.07905754334680744,95.67137004845569
5.64,-0.07810301334901218,96.52608483234658
5.65,-0.07827145981921134,97.2886852768337
5.66,-0.07827145981921134,98.41797164933205
5.67,-0.07754152511501497,98.54020029200245
5.68,-0.0805735615785999,99.18057209381917
5.69,-0.08349330039538541,98.90600050521172
5.7,-0.08618844391857203,98.84488618387651
5.71,-0.09062420096715,97.59425688350973
5.72,-0.09427387448813189,97.68548550811155
5.73,-0.09567759507312491,96.92288506362443
5.74,-0.09461076742853021,95.97694165513171
5.75,-0.09079264743734917,95.21345549584262
5.76,-0.08972581979275447,93.90171187414063
5.77,-0.0916910286117447,93.19934003618677
5.78,-0.0914102844947461,92.46685389496626
5.79,-0.0850093186271779,91.947825021018
5.8,-0.08456012803998011,91.15511027326427
5.81,-0.08590769980157342,90.42262413204378
5.82,-0.08607614627177258,90.02582390076593
5.83,-0.08607614627177258,89.5980236514195
5.84,-0.07967518040420438,89.20122342014164
5.85,-0.0741725957110317,88.80530890366576
5.86,-0.08315640745498709,88.37750865431933
5.87,-0.08972581979275447,88.31639433298412
5.88,-0.09292630272653858,87.82836547710444
5.89,-0.09550914860292575,87.88947979843965
5.9,-0.09842888741971126,87.4315652458266
5.91,-0.09870963153670986,87.46256526389519
5.92,-0.10376302564268476,87.09587933588395
5.93,-0.11476819502903012,87.12687935395253
5.94,-0.12021463089880308,86.79119344400989
5.95,-0.11504893914602872,86.39439321273204
5.96,-0.10696350857646887,85.90547864205041
5.97,-0.10758114563386581,85.90547864205041
5.98,-0.11319602797383793,85.20399251889849
5.99,-0.11370136738443541,85.14287819756329
6.0,-0.11718259443521813,84.74607796628544
6.01,-0.11459974855883096,84.38027775307617
6.02,-0.11381366503123486,83.98347752179832
6.03,-0.11869861266701061,83.52556296918527
6.04,-0.12071997030940057,83.52556296918527
6.05,-0.12313436971558858,83.18987705924263
6.06,-0.12880540087896042,82.7620768098962
6.07,-0.13048986558095205,82.27404795401652
6.08,-0.1284685079385621,82.27404795401652
6.09,-0.12863695440876124,82.27404795401652
6.1,-0.1292545914661582,81.87724772273867
6.11,-0.1260541085323741,81.48044749146082
6.12,-0.13015297264055373,81.14476158151818
6.13,-0.13840684968031275,81.02253293884777
6.14,-0.12392045324318467,80.5956184043033
6.15,-0.08164038922319461,80.56550410103668
6.16,-0.05738409751451506,79.924246584418
6.17,-0.07568861394282417,79.8631322630828
6.18,-0.09887807800690902,79.55844637120875
6.19,-0.09736205977511656,79.52744635314016
6.2,-0.10713195504666803,79.0695318005271
6.21,-0.1316689908723462,78.76484590865304
6.22,-0.14082124908650076,78.73384589058446
6.23,-0.13015297264055373,78.4291599987104
6.24,-0.12144990501359694,78.36804567737519
6.25,-0.11639651090762203,78.39815998064182
6.26,-0.11353292091423625,78.30693135603998
6.27,-0.17973238370250755,78.24581703470479
6.28,-0.3185884239700181,77.97124544609734
6.29,0.07001758277945233,77.54433091155288
6.3,1.507595908282514,77.14753068027503
6.31,2.7593777771558985,76.75073044899717
6.32,1.7075980172323209,75.4691011305618
6.33,-0.17484743606673178,75.13341522061916
6.34,-0.4295384990078671,75.10241520255057
6.35,-0.0763062510002211,74.67550066800611
6.36,-0.07995592452120298,74.67550066800611
6.37,-0.1306021632277515,74.67550066800611
6.38,-0.12436964383038245,74.36992906133008
6.39,-0.10881641974865967,74.36992906133008
6.4,-0.1046614068170803,73.91201450871702
6.41,-0.1046614068170803,73.91201450871702
6.42,-0.09753050624531572,73.63744292010959
6.43,-0.0914102844947461,73.57632859877438
6.44,-0.09399313037113327,73.17952836749653
6.45,-0.09230866566914164,73.14941406422992
6.46,-0.09051190332035057,73.27164270690032
6.47,-0.08989426626295363,72.84384245755389
6.48,-0.0852900627441765,72.84384245755389
6.49,-0.0795067339340052,72.41692792300941
6.5,-0.07933828746380604,72.44792794107799
6.51,-0.06181985456309303,71.99001338846494
6.52,-0.03419463345043021,72.02012769173157
6.53,-0.01785532584111134,71.5932131571871
6.54,-0.01268963408833699,71.6543274785223
6.55,0.0015160182317924722,72.02012769173157
6.56,0.03279091286543718,72.81372815428726
6.57,0.06103377103549694,72.99707111829288
6.58,0.0795067339340052,78.73384589058446
6.59,0.10235930505769174,89.17110911687503
6.6,0.13425183674873337,99.08934346921734
6.61,0.16328077844638922,107.29814825377784
6.62,0.15822738434041433,112.42555124232129
6.63,0.11532968326302732,113.55483761481963
6.64,0.05064623870654852,113.95163784609748
6.65,-0.010219085858749257,113.9206378280289
6.66,-0.05525044222532565,113.43260897214923
6.67,-0.09320704684353719,112.70012283092873
6.68,-0.12285362559858998,111.93752238644161
6.69,-0.13077060969795065,110.77723599587469
6.7,-0.13093905616814983,109.25203510690046
6.71,-0.13307271145733923,103.60560324440874
6.72,-0.13868759379731135,101.56137348148626
6.73,-0.1380699567399144,99.97417255637485
6.74,-0.13318500910413866,99.30280073648957
6.75,-0.1316689908723462,98.84488618387651
6.76,-0.13211818145954396,98.84488618387651
6.77,-0.13121980028514843,99.24168641515436
6.78,-0.13318500910413866,99.97417255637485
6.79,-0.13048986558095205,100.73765871566394
6.8,-0.1256049179451763,101.68360212415666
6.81,-0.1274016802939674,102.47720258671237
6.82,-0.133521902044537,102.44620256864378
6.83,-0.13795765909311497,102.47720258671237
6.84,-0.14267416025869156,101.98828801603072
6.85,-0.14525700613507872,100.76777301893055
6.86,-0.1467730243668712,99.18057209381917
6.87,-0.1478398520114659,96.73954209961882
6.88,-0.15671136610862185,94.32862640868511
6.89,-0.16232624844859397,92.8335398229775
6.9,-0.16356152256338782,92.8335398229775
6.91,-0.170580125488353,92.77242550164229
6.92,-0.17439824547953403,92.71131118030709
6.93,-0.1658636243227764,91.61213911107536
6.94,-0.16097867668700067,91.27645320113272
6.95,-0.15794664022341573,91.2463388978661
6.96,-0.16125942080399927,92.00893934235322
6.97,-0.16417915962078478,92.00893934235322
6.98,-0.16204550433159537,92.22328232442742
6.99,-0.1645160525611831,97.1664566341633
7.0,-0.16906410725656051,96.46497051101139
7.01,-0.17102931607555075,95.58014142385386
7.02,-0.16676200549717193,94.75554094322958
7.03,-0.15946265845520818,93.5961402674646
7.04,-0.15334243670463857,92.77242550164229
7.05,-0.1478398520114659,91.45979616513833
7.06,-0.1475591078944673,90.81942436332163
7.07,-0.14402173202028487,89.96470957943072
7.08,-0.14143888614389769,89.1409948136084
7.09,-0.1475591078944673,88.37750865431933
7.1,-0.1478398520114659,87.85847978037107
7.11,-0.1439094343734854,87.09587933588395
7.12,-0.1504788467112528,87.09587933588395
7.13,-0.16069793257000206,86.6990791046061
7.14,-0.1692325537267597,86.42450751599867
7.15,-0.1692325537267597,86.33327889139684
7.16,-0.16996248843095604,85.936478660119
7.17,-0.17900244899831116,85.936478660119
7.18,-0.178834002528112,85.63090705344297
7.19,-0.17074857195855214,85.56979273210776
7.2,-0.17546507312412873,85.20399251889849
7.21,-0.17288222724774155,84.83730659088727
7.22,-0.163729969033587,84.74607796628544
7.23,-0.1611471231571998,84.31916343174098
7.24,-0.16934485137355912,84.38027775307617
7.25,-0.17394905489233625,84.471506377678
7.26,-0.17013093490115522,84.471506377678
7.27,-0.16569517785257723,84.34927773500759
7.28,-0.16356152256338782,84.31916343174098
7.29,-0.1590134678680104,83.89136318239454
7.3,-0.13840684968031275,83.55567727245189
7.31,-0.10101173329609843,83.06764841657221
7.32,-0.06653635572866962,82.27404795401652
7.33,-0.05845092515910976,81.81613340140346
7.34,-0.0850093186271779,81.41933317012561
7.35,-0.10235930505769174,80.93130431424593
7.36,-0.10881641974865967,80.99241863558115
7.37,-0.1388560402675105,80.56550410103668
7.38,-0.1626631413889923,80.62661842237188
7.39,-0.1611471231571998,80.56550410103668
7.4,-0.15485845493643105,80.29093251242924
7.41,-0.14907512612625975,80.22981819109403
7.42,-0.14480781554788097,79.924246584418
7.43,-0.1475591078944673,79.55844637120875
7.44,-0.2389693923892134,79.43621772853834
7.45,-0.3256070268949832,79.0695318005271
7.46,0.27512923465863387,78.70373158731783
7.47,1.8538095533651948,78.33704565930661
7.48,2.742476981312582,78.2759313379714
7.49,1.273792207646075,77.88001682149552
7.5,-0.3448660733210876,77.54433091155288
7.51,-0.2908509052105558,77.14753068027503
7.52,-0.0033689294039832714,76.62850180632677
7.53,-0.04654737459836887,76.26181587831555
7.54,-0.08360559804218486,75.89601566510628
7.55,-0.07018602924965149,75.92612996837289
7.56,-0.06238134279709025,75.95712998644147
7.57,-0.06181985456309303,75.89601566510628
7.58,-0.05188151282134238,75.86590136183965
7.59,-0.03952877167340372,75.56032975516362
7.6,-0.03144334110384387,75.92612996837289
7.61,-0.018136069958109947,75.89601566510628
7.62,-0.01083672291614619,75.56032975516362
7.63,-0.007916984099360688,75.13341522061916
7.64,-0.004435757048577974,75.13341522061916
7.65,0.0010668276445947027,74.67550066800611
7.66,0.005053394105974908,74.24770041865968
7.67,0.00943300233115316,73.85090018738182
7.68,0.02105580877489545,73.54621429550775
7.69,0.03801275344161125,73.14941406422992
7.7,0.05109542929374629,72.72249952968544
7.71,0.06788392749026292,72.75261383295206
7.72,0.08989426626295363,72.50815654761125
7.73,0.11976544031160531,72.81372815428726
7.74,0.14845748906886283,73.60732861684296
7.75,0.17608271018152566,78.58150294464743
7.76,0.21561148185492937,87.46256526389519
7.77,0.25558944411553086,96.28162754700577
7.78,0.262608047040496,104.9182325809127
7.79,0.22824496711986664,110.01463555138757
7.8,0.16524598726537948,111.57083645843039
7.81,0.09444232095833105,111.96763668970824
7.82,0.023807101121481787,111.96763668970824
7.83,-0.03481227050782714,111.57083645843039
7.84,-0.07428489335783114,110.7161216745395
7.85,-0.09753050624531572,109.80117828411534
7.86,-0.10724425269346748,108.82423485755403
7.87,-0.11566657620342566,107.05457668323898
7.88,-0.12392045324318467,105.43726145486096
7.89,-0.12392045324318467,103.57548894114213
7.9,-0.12010233325200363,102.32397392597338
7.91,-0.11291528385683931,101.13445894694178
7.92,-0.11123081915484768,100.40197280572129
7.93,-0.1054474903446764,100.3709727876527
7.94,-0.09657597624752046,100.89000166160096
7.95,-0.0914102844947461,101.19468755347503
7.96,-0.09079264743734917,101.65260210608808
7.97,-0.09000656390975308,102.47720258671237
7.98,-0.09214021919894248,102.99534574585866
7.99,-0.09275785625633941,103.54448892307354
8.0,-0.08467242568677956,103.57548894114213
8.01,-0.0763062510002211,103.66671756574395
8.02,-0.07248813100904006,102.812888496655
8.03,-0.07215123806864174,101.77483074875849
8.04,-0.07428489335783114,99.76071528910262
8.05,-0.07827145981921134,97.41091391950411
8.06,-0.08298796098478792,95.18334119257601
8.07,-0.08360559804218486,95.15234117450743
8.08,-0.08360559804218486,95.0611125499056
8.09,-0.0852900627441765,93.04699709024973
8.1,-0.09264555860953996,92.0399393604218
8.11,-0.09629523213052185,91.58202480780874
8.12,-0.09505995801572797,91.947825021018
8.13,-0.08832209920776143,92.00893934235322
8.14,-0.08607614627177258,92.07005366368841
8.15,-0.08865899214815977,92.49785391303485
8.16,-0.08697452744616813,96.4339704929428
8.17,-0.08394249098258319,96.4339704929428
8.18,-0.08989426626295363,96.3728561716076
8.19,-0.09584604154332407,95.9158273337965
8.2,-0.09870963153670986,95.15234117450743
8.21,-0.10482985328727946,94.29851210541848
8.22,-0.11718259443521813,93.412797303459
8.23,-0.12296592324538941,92.43673959169965
8.24,-0.11914780325420837,91.64313912914395
8.25,-0.11566657620342566,91.64313912914395
8.26,-0.11274683738664015,91.55191050454212
8.27,-0.11201690268244378,90.3916241139752
8.28,-0.1152173856162279,89.56790934815288
8.29,-0.1154981297332265,88.74419458233055
8.3,-0.12010233325200363,87.73713685250262
8.31,-0.12543647147497713,85.936478660119
8.32,-0.12757012676416654,85.56979273210776
8.33,-0.13155669322554675,85.11187817949471
8.34,-0.1380699567399144,84.68496364495023
8.35,-0.1370031290953197,84.80719228762065
8.36,-0.13762076615271665,84.31916343174098
8.37,-0.13734002203571805,84.01359182506495
8.38,-0.13318500910413866,83.98347752179832
8.39,-0.13531866439332807,83.52556296918527
8.4,-0.14295490437569017,83.15887704117405
8.41,-0.1428426067288907,83.00653409523701
8.42,-0.14188807673109546,82.70184820336296
8.43,-0.14508855966487957,82.3050479720851
8.44,-0.14295490437569017,81.75501908006827
8.45,-0.13795765909311497,81.4503331881942
8.46,-0.13335345557433784,81.35821884879041
8.47,-0.12678404323657044,80.62661842237188
8.48,-0.12936688911295763,80.56550410103668
8.49,-0.13318500910413866,80.16870386975883
8.5,-0.1396421237951066,79.8631322630828
8.51,-0.1303214191107529,79.43621772853834
8.52,-0.08270721686778931,79.1616461399309
8.53,-0.03279091286543718,79.10053181859568
8.54,-0.031892531691041635,78.76484590865304
8.55,-0.05918085986330614,78.73384589058446
8.56,-0.0741725957110317,78.2759313379714
8.57,-0.0850093186271779,77.94024542802876
8.58,-0.10668276445947027,77.91013112476215
8.59,-0.12021463089880308,77.54433091155288
8.6,-0.11903550560740893,77.17764498354164
8.61,-0.11308373032703849,77.08641635893981
8.62,-0.10786188975086441,76.81184477033239
8.63,-0.10376302564268476,76.7808447522638
8.64,-0.14739066142426813,76.75073044899717
8.65,-0.290401714623358,76.65861610959338
8.66,-0.05401516811053179,76.75073044899717
8.67,1.2201139324759416,76.35393021771932
8.68,2.6754914349967147,75.92612996837289
8.69,2.009285645359023,75.83490134377107
8.7,0.05188151282134238,75.530215451897
8.71,-0.4421719842728044,75.07230089928395
8.72,-0.07535172100242585,74.58338632860232
8.73,-0.04379608225178253,73.9430145267856
8.74,-0.1035945791724856,73.97312883005223
8.75,-0.10926561033585744,73.9430145267856
8.76,-0.10679506210626971,73.51521427743917
8.77,-0.10482985328727946,73.14941406422992
8.78,-0.10118017976629759,72.78361385102065
8.79,-0.09915882212390763,72.72249952968544
8.8,-0.09691286918791878,72.44792794107799
8.81,-0.09461076742853021,72.294699280339
8.82,-0.10191011447049396,71.99001338846494
8.83,-0.09949571506430595,71.5932131571871
8.84,-0.08882743861835893,71.56221313911851
8.85,-0.0852900627441765,71.47098451451669
8.86,-0.08192113334019321,71.19641292590924
8.87,-0.06867001101785902,71.22652722917587
8.88,-0.05446435869772956,71.22652722917587
8.89,-0.04042715284779926,70.79961269463139
8.9,-0.0309941505166461,70.43292676662017
8.91,-0.024873928766076487,70.34169814201834
8.92,-0.007018602924965149,69.9448979107405
8.93,0.025491565823473422,70.0060122320757
8.94,0.052162256938340985,70.52504110602396
8.95,0.07400414924083253,71.86778474579454
8.96,0.10679506210626971,76.71973043092859
8.97,0.13823840321011358,86.97365069321354
8.98,0.15822738434041433,97.22757095549849
8.99,0.15912576551480986,104.9182325809127
9.0,0.11690185031821952,110.62489304993765
9.01,0.05109542929374629,111.87640806510642
9.02,-0.008085430569559852,111.87640806510642
9.03,-0.05704720457411673,111.17403622715254
9.04,-0.09382468390093411,110.62489304993765
9.05,-0.11078162856764992,110.01463555138757
9.06,-0.1144313020886318,109.92340692678574
9.07,-0.11824942207981283,108.48854894761138
9.08,-0.12206754207099388,106.53554780929072
9.09,-0.1237520067729855,103.4842603165403
9.1,-0.1274016802939674,100.43208710898791
9.11,-0.1256049179451763,97.80771415078196
9.12,-0.11718259443521813,95.2444555139112
9.13,-0.11319602797383793,95.18334119257601
9.14,-0.11488049267582956,95.2444555139112
9.15,-0.11488049267582956,95.33568413851305
9.16,-0.11718259443521813,96.25151324373914
9.17,-0.11673340384802036,97.44102822277074
9.18,-0.11308373032703849,98.63142891660428
9.19,-0.10971480092305522,99.36391505782477
9.2,-0.10572823446167501,99.57737232509702
9.21,-0.1025277515278909,99.21157211188775
9.22,-0.10454910917028086,98.57031459526908
9.23,-0.10847952680826134,97.68548550811155
9.24,-0.1154981297332265,95.64125574518906
9.25,-0.125268025004778,93.4739116247942
9.26,-0.13093905616814983,93.53502594612941
9.27,-0.13015297264055373,93.04699709024973
9.28,-0.12757012676416654,90.63608139931601
9.29,-0.1292545914661582,88.98776615286941
9.3,-0.1399228679121052,87.98070842304148
9.31,-0.1409896955566999,87.98070842304148
9.32,-0.13627319439112334,87.98070842304148
9.33,-0.13531866439332807,87.88947979843965
9.34,-0.13475717615933086,87.91959410170628
9.35,-0.13200588381274453,87.91959410170628
9.36,-0.13121980028514843,89.26233774147686
9.37,-0.13228662792974313,95.15234117450743
9.38,-0.133521902044537,94.84765528263337
9.39,-0.12863695440876124,94.72542663996295
9.4,-0.12436964383038245,93.84059755280543
9.41,-0.12465038794738105,93.13822571485156
9.42,-0.12801931735136432,91.91771071775139
9.43,-0.13262352087014145,91.00188161252528
9.44,-0.12144990501359694,89.90359525809552
9.45,-0.08147194275299545,88.9576518496028
9.46,-0.03677747932681738,87.79825117383783
9.47,-0.012184294677739498,86.97365069321354
9.48,-0.021954189949290985,86.21105024872642
9.49,-0.03599139579922128,85.47856410750593
9.5,-0.043009998724186434,85.08176387622808
9.51,-0.07967518040420438,84.31916343174098
9.52,-0.12543647147497713,84.25804911040576
9.53,-0.1292545914661582,83.95247750372974
9.54,-0.12021463089880308,83.55567727245189
9.55,-0.11701414796501897,83.09776271983884
9.56,-0.10741269916366664,83.00653409523701
9.57,-0.10011335212170289,82.73196250662957
9.58,-0.17608271018152566,82.67084818529437
9.59,-0.29786950813552093,82.27404795401652
9.6,0.1677165354949672,81.93836204407387
9.61,1.6670024179143226,81.66379045546644
9.62,2.7870029982685613,81.389218866859
9.63,1.5579052540486642,80.96230433231452
9.64,-0.2093228136341606,80.5956184043033
9.65,-0.314770303978837,80.19881817302544
9.66,0.007187049395164313,79.83301795981617
9.67,-0.01662005172631747,79.43621772853834
9.68,-0.056766460457118126,79.1616461399309
9.69,-0.04228006401999006,79.0084174791919
9.7,-0.03677747932681738,78.82596022998824
9.71,-0.03234172227823941,78.64261726598264
9.72,-0.02015742760049991,78.30693135603998
9.73,-0.007804686452561246,78.33704565930661
9.74,0.0006176370573969331,78.39815998064182
9.75,0.007804686452561246,78.33704565930661
9.76,0.020438171717498513,78.24581703470479
9.77,0.03554220521202352,77.88001682149552
9.78,0.04576129107077277,77.91013112476215
9.79,0.05322908458293569,77.42210226888247
9.8,0.05429591222753039,77.14753068027503
9.81,0.06086532456529777,77.02530203760462
9.82,0.07321806571323644,76.7808447522638
9.83,0.09275785625633941,76.56738748499156
9.84,0.1176317850224159,75.92612996837289
9.85,0.13762076615271665,75.89601566510628
9.86,0.16311233197619007,75.530215451897
9.87,0.20280955011979296,76.0483586110433
9.88,0.24340514943779137,76.71973043092859
9.89,0.2815302005262021,76.68961612766196
9.9,0.31510719691923533,77.6966738574899
9.91,0.34087950685970736,80.96230433231452
9.92,0.33874585157051795,91.15511027326427
9.93,0.29051401227015744,99.76071528910262
9.94,0.2087613254001634,107.1458053078408
9.95,0.12785087088116515,112.33432261771947
9.96,0.06440270043948021,112.18109395698048
9.97,0.025154672883075095,111.54072215516376
9.98,0.002919738816785502,111.08280760255072
9.99,-0.007916984099360688,110.3202071580636
