time_s,ECG1,ECG2,NIBP
0.0,0.13761934649952196,0.030480233060856152,102.01044086717701
0.01,0.1828208204839916,0.05130006438657757,108.5630927141388
0.02,0.19094768281998092,0.05767093277224832,109.89808808033617
0.03,0.26402227969234787,0.07157858009783022,109.23621073434134
0.04,0.26986556087607577,0.06924675898934943,108.23777437824525
0.05,0.2681192929361111,0.09244005108620308,106.71168755051691
0.06,0.18631335636392088,0.07099562482071002,105.39917353273495
0.07,0.1729476902080376,0.06345884588079888,103.64827322085253
0.08,0.06273131753565325,0.007328580626653938,102.90771115540377
0.09,0.07549250632770263,0.014240764626793448,101.60643781182952
0.1,0.02619401909946977,0.009618762072483293,101.33732284697449
0.11,0.05870146844342713,0.007911535903774138,100.77595035271912
0.12,-0.0022164170007243655,-0.007162021976048167,100.34946594895622
0.13,0.03432088143545911,-0.004247245590447169,99.6763479287537
0.14,-0.012626860488975171,-0.008910887807408766,99.4971583575603
0.15,0.02270148321954047,-0.009493843084528965,99.5421210543911
0.16,-0.01088059254901052,-0.007162021976048167,99.72131062558451
0.17,0.023305960583374388,-0.014698800915959319,99.47467700914488
0.18,-0.006246266092950484,-0.007162021976048167,99.30606689602931
0.19,0.03317909085932838,-0.009493843084528965,98.76783696631924
0.2,-0.013835815216643007,-0.007162021976048167,98.45375930463338
0.21,-0.010343279336713704,-0.018737848193149272,97.8361834393395
0.22,-0.15823874102141225,-0.12121305797835008,97.2417501385909
0.23,0.008261190639063543,-0.132205928918331,96.52366942155754
0.24,0.5639102163055082,0.16651701094311988,95.97419881763976
0.25,1.3708203328722515,0.7438092939427232,95.45778902021523
0.26,0.9148429080868661,1.3285967162195864,94.9526198969984
0.27,-0.16576112599356768,1.0755524862867683,94.26826120258815
0.28,-0.5381863462667982,0.2568750788967508,93.67382790183956
0.29,-0.37752969579005025,0.028731367229495552,93.06815392688324
0.3,-0.16173127690134156,0.011950583180964092,92.69787289415886
0.31,0.008261190639063543,-0.007162021976048167,92.26014781618827
0.32,-0.006246266092950484,-0.008327932530288566,91.79994138980224
0.33,0.05930594580726105,-0.020486714024509873,91.35097563762393
0.34,0.007052235911395708,-0.010618113976117921,90.98069460489955
0.35,0.08187310072372732,-0.008327932530288566,90.72282031425222
0.36,0.03317909085932838,0.007328580626653938,90.49866804622799
0.37,0.09349249893964595,-0.001957064144617813,90.16210903612674
0.38,0.0441940117114131,0.009035806795363093,89.85927204864858
0.39,0.10571637451939851,-0.005996111421807768,89.58949586766367
0.4,0.08657459133132445,0.015989630458154047,89.43278764488568
0.41,0.1660297825997161,-0.0007911535903774138,89.29789955439323
0.42,0.14399994089554663,0.033936325060925907,89.17425213810847
0.43,0.2269476680438676,0.036268146169406705,89.04002526374589
0.44,0.22520140010390294,0.08719345359212129,89.04002526374589
0.45,0.2988133101885667,0.06870544337488067,89.62321789028678
0.46,0.27564167790826655,0.1138428376890447,91.65447384123195
0.47,0.3394476218685134,0.09706205364051324,95.33414160393048
0.48,0.2884028667003159,0.11617465879752549,100.00166626464726
0.49,0.3051939045845914,0.08140554048357074,104.32139124105507
0.5,0.2205670736478429,0.10168405619482339,107.39604624492715
0.51,0.22808945861999833,0.044929196000906814,109.28117343117216
0.52,0.12250741240367401,0.05130006438657757,110.36953518092989
0.53,0.14399994089554663,0.009618762072483293,110.97520915588619
0.54,0.07435071575157189,0.04322196983219766,111.25556479494894
0.55,0.10974622361162463,-0.001957064144617813,111.28928681757205
0.56,0.04822386080363922,0.011367627903843892,111.24432412074124
0.57,0.09638055745574134,-0.021652624578750272,111.24432412074124
0.58,0.04654475701521167,0.019487362120875245,111.25556479494894
0.59,0.09235070836351522,-0.026274627133060426,111.11009724637864
0.6,0.0407014758314838,0.0235264093980652,110.8072602589005
0.61,0.12485815770747258,-0.014115845638839119,110.45879935846166
0.62,0.1190148765237447,0.044929196000906814,110.08917954186714
0.63,0.2065969301281257,0.007911535903774138,109.65145446389654
0.64,0.15380590701996352,0.05017579349498861,109.00081779210942
0.65,0.2767834684843973,0.021194588289584402,108.00172021988345
0.66,0.27389540996830186,0.08606918270053233,106.71168755051691
0.67,0.3324625501086548,0.04263901455507746,105.32048881328103
0.68,0.2309775171360937,0.08606918270053233,103.95177142446055
0.69,0.22634319068003367,0.038017012000767306,102.66107753896414
0.7,0.10571637451939851,0.041473104000837056,101.49403106975248
0.71,0.09349249893964595,-0.028023492964421023,100.5180760620718
0.72,0.020417902067279,-0.007744977253168367,99.78875467083074
0.73,0.058096991079593215,-0.05754601378429399,99.31730757023702
0.74,-0.004499998152985832,-0.0031229746988582123,99.02571125696657
0.75,0.04305222113528237,-0.06508279272420514,98.84652168577317
0.76,-0.011485069912844438,-0.008327932530288566,98.73411494369611
0.77,0.032037300283197644,-0.07141202144722446,98.6554302242422
0.78,-0.006850743456784402,-0.008910887807408766,98.56550483058055
0.79,0.03841789467922233,-0.05925323995300315,98.43127795621797
0.8,-0.02135820018879843,-0.026857582410180623,98.17340366557063
0.81,0.023910437947208305,-0.0928564477127175,97.86990546196262
0.82,-0.00745522082061832,-0.018154892916029074,97.54458712606905
0.83,0.023305960583374388,-0.08823444515840735,97.15182474492926
0.84,-0.13446263137727815,-0.08473671349568616,96.65855751205
0.85,-0.07414922329696058,-0.23934478092049338,96.18711041145627
0.86,0.1665670958120129,-0.0697047952785153,95.77186668190109
0.87,1.0018876484789503,0.3425695046334202,95.28984012322952
0.88,1.4201188201004842,1.0425738734668255,94.76218965159728
0.89,0.09235070836351522,1.3268478503882257,94.13403432822557
0.9,-0.3670520881502623,0.5631347976981128,93.5164584629317
0.91,-0.5010445704667807,0.027565456675255152,92.98946920742931
0.92,-0.28296257042581063,-0.020486714024509873,92.46181873579707
0.93,-0.03640297013310927,-0.09981027137550846,91.99103285133322
0.94,-0.005708952880653668,-0.017571937638908873,91.55330777336262
0.95,0.051716396683568526,-0.10847132120700857,91.14930471801512
0.96,0.025656705887172955,-0.026274627133060426,90.79026435949845
0.97,0.07844772899533511,-0.10210045282133781,90.40874265256636
0.98,0.04244774377144845,-0.03031367441025038,90.07218364246509
0.99,0.08946264984741983,-0.08994167132711652,89.85927204864858
1.0,0.051716396683568526,-0.018154892916029074,89.60073654187137
1.01,0.10739547830782606,-0.08940035571264776,89.33162157701634
1.02,0.09409697630347988,-0.01120106925323812,89.09622863478441
1.03,0.1451417314716774,-0.08940035571264776,88.86017447642261
1.04,0.142253672955582,0.008452851518242894,88.70346625364462
1.05,0.2170745377679136,-0.054631237398692994,88.59105951156758
1.06,0.219962596284009,0.03914128289235626,88.61354085998299
1.07,0.3057983819484253,-0.008910887807408766,89.05126593795359
1.08,0.29364167052020984,0.08606918270053233,90.58859343988964
1.09,0.34408194832457345,0.010201717349603493,93.95418354090229
1.1,0.3150670348605454,0.08373736159205153,98.64418955003448
1.11,0.3394476218685134,0.011950583180964092,103.26675151392045
1.12,0.26637302499614646,0.06695657754352007,106.80161294417854
1.13,0.2512610909002985,-0.02106966930163007,109.10132264384889
1.14,0.18107455254402693,0.028731367229495552,110.49252138108477
1.15,0.1729476902080376,-0.06391688216996474,111.21060209811812
1.16,0.11438055006768467,0.0020819831325721416,111.51410030172615
1.17,0.11263428212772002,-0.09981027137550846,111.71577122133495
1.18,0.09584324424344452,-0.01353289036171892,111.88438133445052
1.19,0.10739547830782606,-0.09922731609838827,111.88438133445052
1.2,0.07898504220763193,-0.007162021976048167,111.76073391816577
1.21,0.09463428951577668,-0.11484218959267932,111.5921238050502
1.22,0.06971638929551185,-0.01294993508459872,111.4129342338568
1.23,0.11847756331144789,-0.08765148988128715,111.23308344653353
1.24,0.12364920297980474,-0.008910887807408766,110.94148713326308
1.25,0.19967902251980418,-0.07316088727858505,110.5374840779156
1.26,0.17704470345180082,0.007911535903774138,110.11099967415268
1.27,0.2518655682641324,-0.04305541118159189,109.35985815062608
1.28,0.27275361939217113,0.04609510655514721,108.26025572666066
1.29,0.3284327010164287,-0.04018227445864233,106.8683957732949
1.3,0.26052974381241856,0.05130006438657757,105.32048881328103
1.31,0.23849990210824912,-0.049426279567262636,103.92929007604513
1.32,0.15441038438379745,0.00499675951817314,102.69479956158726
1.33,0.09463428951577668,-0.12121305797835008,101.61767848603722
1.34,0.04533580228754384,-0.04884332429014244,100.80967237534225
1.35,0.04594027965137775,-0.1374525264124128,100.24896109721675
1.36,0.023305960583374388,-0.04709445845878184,99.9573647839463
1.37,0.03143282291936372,-0.15365035518382403,99.83371736766155
1.38,0.006514922699098892,-0.05754601378429399,99.73255129979222
1.39,0.025052228523339038,-0.14844539735239368,99.6763479287537
1.4,0.006514922699098892,-0.06391688216996474,99.57584307701421
1.41,0.014037307671254313,-0.15423331046094424,99.44095498652176
1.42,0.005305967971431056,-0.06391688216996474,99.28358554761391
1.43,0.014641785035088232,-0.1582723577381342,99.07067395379738
1.44,-0.0010746264245936317,-0.07607566366418606,98.80155898894235
1.45,0.014641785035088232,-0.1449476656896725,98.45375930463338
1.46,-0.042246251316837145,-0.0928564477127175,97.99355287824736
1.47,-0.09557458763729612,-0.28277494906594824,97.51086510344594
1.48,0.016320888823515782,-0.19245852077496875,97.02883854477437
1.49,0.7048877703818853,0.09185709580908288,96.4112626794805
1.5,1.3812307763605023,0.7947346013654378,95.8055887045242
1.51,0.5732460333691654,1.2307435089886958,95.16619270694477
1.52,-0.24353721347353177,0.8676872903307656,94.50431536094995
1.53,-0.4645072720305973,0.07449335648343122,93.85301747303296
1.54,-0.3293729991379481,-0.046553142844313083,93.28106552069977
1.55,-0.08805220266514069,-0.13915975258112193,92.79837774589834
1.56,-0.0028208943645582833,-0.0656241083386739,92.383795232473
1.57,0.0441940117114131,-0.1455306209667927,91.923588806087
1.58,0.05117908347127171,-0.07087070583275569,91.47462305390869
1.59,0.060985049595688595,-0.14382339479808354,91.1268233695997
1.6,0.06971638929551185,-0.0697047952785153,90.79026435949845
1.61,0.08073131014759657,-0.1455306209667927,90.46494602360488
1.62,0.07784325163150119,-0.04767741373590204,90.19583105874985
1.63,0.08597011396749053,-0.13857679730400174,89.97101757459575
1.64,0.098126825395706,-0.0789488003871356,89.72438395815612
1.65,0.13701486913568803,-0.13686957113529258,89.47775034171649
1.66,0.1497760579277374,-0.05404828212157279,89.26417753177012
1.67,0.18107455254402693,-0.09747845026702766,89.0625066121613
1.68,0.22285065480010435,-0.001957064144617813,89.02878458953818
1.69,0.2611342211762525,-0.07490975310994565,89.20797416073158
1.7,0.29129092521641126,0.026982501398134955,89.97101757459575
1.71,0.32144762925657006,-0.04480427701295248,92.21518511935744
1.72,0.3324625501086548,0.04205605927795726,96.08594434358695
1.73,0.3295744915925594,-0.039016363904401934,100.76470967851142
1.74,0.27624615527210045,0.026399546121014753,105.07319398071152
1.75,0.23849990210824912,-0.0667900188929143,108.03544224250656
1.76,0.19208947339611165,-0.014698800915959319,109.83064403508995
1.77,0.15555217495992818,-0.11659105542403993,110.89652443643226
1.78,0.12076114446370936,-0.05346532684445259,111.43541558227221
1.79,0.10336562921559994,-0.12700097108690064,111.68204919871184
1.8,0.08422384602752588,-0.0795317556642558,111.78321526658118
1.81,0.08536563660365662,-0.13974270785824214,111.77197459237348
1.82,0.07435071575157189,-0.0656241083386739,111.65956785029643
1.83,0.07320892517544116,-0.15073557879822305,111.50285962751843
1.84,0.07146265723547651,-0.0824465320498568,111.26680546915664
1.85,0.08657459133132445,-0.13686957113529258,110.9976905043016
1.86,0.10222383863946921,-0.060419150507243544,110.73981621365427
1.87,0.1497760579277374,-0.11542514486979952,110.3920165293453
1.88,0.17120142226807294,-0.05059219012150304,109.89808808033617
1.89,0.2008208130959349,-0.10905427648412877,109.16876668909511
1.9,0.2611342211762525,-0.005413156144687568,108.1028862877528
1.91,0.30230584606849603,-0.08590262404992656,106.80161294417854
1.92,0.28726107612418517,-0.006579066698927967,105.36545151011184
1.93,0.2617386985400864,-0.061585061061483946,103.94053075025285
1.94,0.17469395814800226,-0.03843340862728173,102.70604023579496
1.95,0.11498502743151859,-0.1374525264124128,101.57271578920641
1.96,0.05930594580726105,-0.08765148988128715,100.74222833009601
1.97,0.028544764403268343,-0.16755800250940595,100.22647974880134
1.98,0.004164177395300323,-0.11833992125540052,99.88992073870007
1.99,0.0024179094553356713,-0.1710140945094757,99.78875467083074
2.0,0.013432830307420396,-0.11255200814684997,99.72131062558451
2.01,0.00879850385136036,-0.17563609706378586,99.64262590613058
2.02,0.01054477179132501,-0.12121305797835008,99.58708375122193
2.03,0.00013432830307420396,-0.16697504723228573,99.48591768335258
2.04,-0.003358207576855099,-0.11313496342397017,99.36227026706784
2.05,-0.003358207576855099,-0.17680200761802625,99.19432137008214
2.06,0.02102237943111292,-0.12296192380971067,98.89148438260398
2.07,0.013432830307420396,-0.16872391306364634,98.62170820161907
2.08,-0.00745522082061832,-0.12758392636402083,98.2514271688947
2.09,-0.14198501634943358,-0.2740722595717967,97.76940061022314
2.1,-0.08341787620908066,-0.26482825446317637,97.2529908127986
2.11,0.41836549992460825,-0.08531966877280636,96.6473168378423
2.12,1.2327308373119696,0.537110008540961,96.06346299517153
2.13,1.085977166203402,1.0541496996839266,95.46902969442293
2.14,-0.18550738654547566,1.1103216046007232,94.84087437105121
2.15,-0.41520878480236445,0.12196257190607605,94.25702052838045
2.16,-0.4378431038703678,-0.07257793200146485,93.65134655342415
2.17,-0.179126792149451,-0.1745118261721969,93.06815392688324
2.18,-0.04110446074070641,-0.10847132120700857,92.57422547787412
2.19,0.013432830307420396,-0.16522618140092515,92.08029702886499
2.2,0.03317909085932838,-0.10326636337557822,91.67695518964736
2.21,0.0407014758314838,-0.17505314178666564,91.30667415692298
2.22,0.061589526959522516,-0.10326636337557822,90.9251524499909
2.23,0.06273131753565325,-0.1733459156179565,90.56611209147422
2.24,0.06622385341558255,-0.0928564477127175,90.22955308137296
2.25,0.06682833077941647,-0.1582723577381342,89.99349892301116
2.26,0.09463428951577668,-0.10963723176124897,89.78058732919465
2.27,0.10336562921559994,-0.15365035518382403,89.54453317083285
2.28,0.14688799941164202,-0.08415375821856595,89.30914022860092
2.29,0.16428351465975144,-0.11775696597828032,89.073747286369
2.3,0.22520140010390294,-0.04538723229007269,89.00630324112278
2.31,0.2611342211762525,-0.10443227392981862,89.15177078969306
2.32,0.3000222649162345,-0.03089662968737058,89.73562463236382
2.33,0.30465659137229456,-0.09052462660423671,91.4971044023241
2.34,0.32319389719653474,-0.01586471147019972,94.88583706788204
2.35,0.31681330280051,-0.0789488003871356,99.508399031768
2.36,0.2994177875524006,-0.01586471147019972,104.11972032144625
2.37,0.23211930771222444,-0.11022018703836917,107.51969366121189
2.38,0.19732827721600563,-0.05871192433853439,109.68517648651965
2.39,0.13990292765178342,-0.1333718394725714,110.97520915588619
2.4,0.09120891778738449,-0.004247245590447169,111.6033644792579
2.41,0.07495519311540581,-0.15190148935246345,112.06357090564393
2.42,0.05057460610743779,-0.018737848193149272,112.38888924153748
2.43,0.05520893256349783,-0.1490283526295139,112.46757396099142
2.44,0.0407014758314838,-0.03089662968737058,112.36640789312207
2.45,0.04358953434757919,-0.16639209195516555,112.13101495089015
2.46,0.020417902067279,-0.041889500627351486,111.90620146673606
2.47,0.02619401909946977,-0.17796791817226665,111.70453054712725
2.48,0.07844772899533511,-0.009493843084528965,111.39045288544139
2.49,0.11612681800764932,-0.12471078964107128,110.88528376222456
2.5,0.1456790446839742,0.0246923199523056,110.27960978726826
2.51,0.1636790372959175,-0.13974270785824214,109.58401041865031
2.52,0.2135820018879843,0.0351022356151663,108.65235689167058
2.53,0.27449988733213576,-0.07724157421842645,107.36232422230404
2.54,0.2884028667003159,0.052465974940817964,105.92616278823733
2.55,0.24723124180807238,-0.06449983744708494,104.49000135417063
2.56,0.20310439424819637,0.04205605927795726,103.19996868480409
2.57,0.1491715805639035,-0.11138609759260958,102.05540356400783
2.58,0.07381340253927507,-0.033811406072971575,101.19119408227432
2.59,0.05460445519966391,-0.15539922101518464,100.64172347835654
2.6,0.017529843551183616,-0.046553142844313083,100.36070662316394
2.61,0.02102237943111292,-0.16639209195516555,100.24896109721675
2.62,0.020417902067279,-0.03439436135009178,100.24896109721675
2.63,0.01867163412731435,-0.1733459156179565,100.29392379404757
2.64,-0.012626860488975171,-0.05696305850717379,100.38318797157935
2.65,-0.00920148876058297,-0.19474870222079813,100.41690999420246
2.66,-0.014373128428939824,-0.083029487326977,100.28268311983986
2.67,-0.010343279336713704,-0.20053661532934866,100.09159165830889
2.68,-0.022499990764929163,-0.0679559294471547,99.86743939028467
2.69,-0.00745522082061832,-0.20170252588358906,99.58708375122193
2.7,-0.024850736068727734,-0.06391688216996474,99.21680271849755
2.71,-0.12405218788902736,-0.238178870366253,98.74535561790383
2.72,-0.12284323316135952,-0.20632452843789922,98.21770514627158
2.73,0.18107455254402693,-0.23759591508913278,97.65699386814609
2.74,1.0163951052109643,0.3367815915248696,97.05131989318978
2.75,1.4659247714487877,0.8063104275825389,96.45622537631132
2.76,-0.025388049281024547,1.2660539429171191,95.78310735610879
2.77,-0.300962563037754,0.31825194164497755,95.07626731328314
2.78,-0.5579326068187062,0.028148411952375354,94.43687131570373
2.79,-0.2887386874580014,-0.18258992072657682,93.84243801495512
2.8,-0.09792533294109469,-0.05754601378429399,93.33726889173829
2.81,-0.01497760579277374,-0.18779487855800717,92.92202516218309
2.82,0.006514922699098892,-0.06620706361579409,92.43933738738167
2.83,0.021559692643409734,-0.18721192328088695,91.9348294802947
2.84,0.03082834555552981,-0.05292401122998384,91.45214170549328
2.85,0.04768654759134241,-0.18258992072657682,91.07061999856118
2.86,0.04654475701521167,-0.05754601378429399,90.79026435949845
2.87,0.062194004323356436,-0.1692652286781151,90.5099087204357
2.88,0.06333579489948717,-0.05521419267581319,90.22955308137296
2.89,0.07435071575157189,-0.18088269455786765,90.00473959721887
2.9,0.09463428951577668,-0.025691671855940224,89.81430935181776
2.91,0.12015666709987544,-0.15539922101518464,89.62321789028678
2.92,0.16193276935595288,-0.01294993508459872,89.53329249662515
2.93,0.20605961691582886,-0.1362866158581724,89.61197721607908
2.94,0.23796258889595232,0.020070317397995443,90.02722094563428
2.95,0.27275361939217113,-0.10676409503829941,91.35097563762393
2.96,0.27389540996830186,0.03914128289235626,94.3581865962498
2.97,0.2901491346402805,-0.09402235826695791,98.79031831473465
2.98,0.2611342211762525,0.04205605927795726,103.60331052402171
2.99,0.22808945861999833,-0.08415375821856595,107.44100894175796
3.0,0.17879097139176547,0.04784397238650781,109.98801347399781
3.01,0.13815665971181876,-0.12641801580978043,111.45789693068762
3.02,0.08536563660365662,-0.001957064144617813,112.24342169296719
3.03,0.060985049595688595,-0.1478624420752735,112.60246205148387
3.04,0.03667162673925768,-0.01236697980747852,112.73668892584645
3.05,0.021559692643409734,-0.16697504723228573,112.8378549937158
3.06,0.025052228523339038,-0.016988982361788675,112.79289229688499
3.07,0.007052235911395708,-0.16289436029244436,112.62428218376941
3.08,-0.0028208943645582833,-0.016988982361788675,112.445092612576
3.09,-0.0010746264245936317,-0.1698481839552353,112.34392654470668
3.1,0.014641785035088232,0.0003747569638629855,112.16473697351327
3.11,0.04594027965137775,-0.15073557879822305,111.89562200865822
3.12,0.08536563660365662,0.00499675951817314,111.45789693068762
3.13,0.10336562921559994,-0.14436471041255228,110.91900578484767
3.14,0.13761934649952196,0.04205605927795726,110.18968439360661
3.15,0.1938357413360763,-0.0928564477127175,109.135044666472
3.16,0.2135820018879843,0.06345884588079888,107.83377132289775
3.17,0.16891784111581148,-0.0922734924355973,106.35264719200023
3.18,0.14688799941164202,0.052465974940817964,104.98392980317976
3.19,0.08597011396749053,-0.11659105542403993,103.8168833339681
3.2,-0.0016119396368904474,-0.001957064144617813,102.87465034891052
3.21,-0.027738794584823118,-0.16697504723228573,102.22335246099354
3.22,-0.033514911617013886,-0.028606448241541224,101.83059007985375
3.23,-0.07354474593312667,-0.19129261022072835,101.5614751149987
3.24,-0.09732085557726076,-0.04018227445864233,101.4047668922207
3.25,-0.08979847060510535,-0.20865634954638002,101.34856352118219
3.26,-0.08865668002897462,-0.04130654535023129,101.4047668922207
3.27,-0.08576862151287923,-0.19012669966648796,101.48279039554477
3.28,-0.09617906500113003,-0.044221321735832285,101.48279039554477
3.29,-0.101417868821024,-0.20053661532934866,101.33732284697449
3.3,-0.09967160088105934,-0.033811406072971575,101.090028014405
3.31,-0.08691041208900996,-0.19474870222079813,100.7197469816806
3.32,-0.08744772530130678,-0.03264549551873118,100.24896109721675
3.33,-0.19591783003372648,-0.23297391253482264,99.81123601924615
3.34,-0.19941036591365577,-0.16580913667804534,99.35102959286013
3.35,0.10101488391180137,-0.22427122304067107,98.81279966315005
3.36,0.9143055948745692,0.36280638068202137,98.17340366557063
3.37,1.4537680600205722,0.8092252039681399,97.52210577765364
3.38,0.06394027226332108,1.3326357634967763,96.8265064090357
3.39,-0.3861938713383364,0.39757549899597616,96.13090704041775
3.4,-0.6530370453952425,0.09764500891763343,95.55895508808456
3.41,-0.3763207410623824,-0.160604178846615,95.03130461645232
3.42,-0.1529999372015183,-0.006579066698927967,94.42563064149601
3.43,-0.09443279706116538,-0.16347731556956455,93.80871599233201
3.44,-0.06951489684090055,-0.020486714024509873,93.29230619490747
3.45,-0.045738787196766446,-0.16697504723228573,92.86582179114457
3.46,-0.04627610040906326,-0.007744977253168367,92.43933738738167
3.47,-0.032373121040883156,-0.1739288708950767,92.04657500624188
3.48,-0.026597004008692384,-0.001957064144617813,91.66571451543966
3.49,-0.023641781341059896,-0.1820069654494566,91.33973496341623
3.5,-0.0028208943645582833,0.002664938409692341,91.115582695392
3.51,0.009940294427491093,-0.16406027084668476,90.90267110157549
3.52,0.033783568223162294,0.015406675181033848,90.6666169432137
3.53,0.05695520050346248,-0.1345377500268118,90.38626130415095
3.54,0.09638055745574134,0.04089014872371686,90.19583105874985
3.55,0.14688799941164202,-0.11833992125540052,90.26261388786621
3.56,0.190343205456147,0.09589614308627284,90.96945393069186
3.57,0.2170745377679136,-0.07549270838706584,92.9557471848062
3.58,0.23796258889595232,0.1150087482432851,96.56863211838836
3.59,0.24897750974803703,-0.05925323995300315,101.30360082435136
3.6,0.22862677183229513,0.13178953229181656,105.80251537195258
3.61,0.19094768281998092,-0.06508279272420514,109.1238039922643
3.62,0.13929845028794952,0.08490327214629192,111.28928681757205
3.63,0.09409697630347988,-0.10618113976117921,112.54625868044535
3.64,0.04594027965137775,0.046678061832267415,113.253098723271
3.65,0.03667162673925768,-0.13857679730400174,113.63462043020309
3.66,0.020417902067279,0.032770414506685504,113.78008797877337
3.67,0.018067156763480433,-0.1466965315210331,113.87001337243501
3.68,-0.009738801972879787,0.03222909889221675,113.98242011451205
3.69,-0.006850743456784402,-0.15768940246101398,113.95993876609664
3.7,-0.022499990764929163,0.06579066698927967,113.80256932718878
3.71,-0.0010746264245936317,-0.12933279219538144,113.62337975599537
3.72,0.006514922699098892,0.06812248809776048,113.40980694604899
3.73,0.04708207022750849,-0.12991574747250162,113.12945130698624
3.74,0.07320892517544116,0.07561762737502017,112.8378549937158
3.75,0.09933578012337382,-0.11600810014691973,112.45633328678372
3.76,0.1352686011957234,0.12079666135183564,111.8394186376197
3.77,0.210089466008055,-0.07316088727858505,110.82908039118604
3.78,0.19504469606374414,0.1138428376890447,109.49408502498868
3.79,0.1729476902080376,-0.07316088727858505,108.1141269619605
3.8,0.10222383863946921,0.1254186639061458,106.74540957314002
3.81,0.05117908347127171,-0.12641801580978043,105.51091905868213
3.82,-0.034119388980847806,0.034519280338046104,104.45627933154752
3.83,-0.03123133046475242,-0.15539922101518464,103.67075456926794
3.84,-0.05675370804885117,0.038017012000767306,103.17748733638868
3.85,-0.06313430244487586,-0.17796791817226665,102.89647048119606
3.86,-0.08341787620908066,0.025275275229425798,102.77348428104118
3.87,-0.06541788359713732,-0.16289436029244436,102.75100293262578
3.88,-0.0746865365092574,0.029314322506615753,102.78472495524889
3.89,-0.06776862890093589,-0.17680200761802625,102.77348428104118
3.9,-0.08630593472517605,0.026982501398134955,102.62735551634103
3.91,-0.07529101387309133,-0.18667060766641821,102.3919625741091
3.92,-0.08744772530130678,0.025858230506545996,102.12284760925407
3.93,-0.07300743272082985,-0.18258992072657682,101.77504792494508
3.94,-0.09967160088105934,0.014823719903913648,101.34856352118219
3.95,-0.21505961322180053,-0.2711991228488472,100.91083844321157
3.96,-0.17160440717729555,-0.12700097108690064,100.38318797157935
3.97,0.27564167790826655,-0.14727948679815328,99.6988292771691
3.98,1.1178801381835253,0.5799572214092957,99.00322990855116
3.99,1.3598054120201666,1.0089706657071111,98.34135256255634
4.0,-0.19423872624529892,1.3563703712080988,97.69071589076921
4.01,-0.500507257254484,0.2169010027513657,97.02883854477437
4.02,-0.6008504996509143,0.07911535903774138,96.35572052457185
4.03,-0.2748357080898213,-0.16464322612380494,95.69318196244716
4.04,-0.11820890670529949,0.029314322506615753,95.10998933590625
4.05,-0.045738787196766446,-0.1745118261721969,94.56051873198847
4.06,-0.04278356452913396,0.04959283821786841,93.99914623773311
4.07,-0.014373128428939824,-0.18088269455786765,93.48339765643844
4.08,-0.020216409612667696,0.036268146169406705,93.07939460109095
4.09,-0.00047014906075971383,-0.1843387865579374,92.70911356836658
4.1,-0.010343279336713704,0.03568519089228651,92.3500732098499
4.11,0.018067156763480433,-0.16872391306364634,91.97979217712552
4.12,0.025656705887172955,0.041473104000837056,91.65447384123195
4.13,0.05695520050346248,-0.16347731556956455,91.36221631183165
4.14,0.05930594580726105,0.05017579349498861,91.0931013469766
4.15,0.1051118971555646,-0.14844539735239368,90.85770840474467
4.16,0.11961935388757862,0.07620058265214037,90.80150503370615
4.17,0.18396261106012232,-0.11484218959267932,91.10434202118431
4.18,0.19732827721600563,0.1242527533519054,92.1140190514881
4.19,0.24313422856430916,-0.08531966877280636,94.54927805778077
4.2,0.24488049650427382,0.13470430867741756,98.63294887582678
4.21,0.2686566061484079,-0.0673729741700345,103.51404634648995
4.22,0.2239924453762351,0.1358285795690065,107.6764018839899
4.23,0.20485066218816103,-0.08011471094137601,110.63865014578492
4.24,0.142253672955582,0.10459883258042439,112.50129598361453
4.25,0.12311188976750793,-0.12758392636402083,113.53345436233374
4.26,0.05695520050346248,0.07157858009783022,114.04986415975827
4.27,0.06736564399171328,-0.14611357624391288,114.34146047302872
4.28,0.02270148321954047,0.051883019663697766,114.4644466731836
4.29,0.03667162673925768,-0.16872391306364634,114.4644466731836
4.3,0.014641785035088232,0.04438788038643806,114.4532059989759
4.31,0.033783568223162294,-0.17971678400362726,114.42014519248265
4.32,0.009940294427491093,0.0374340567236471,114.35270114723643
4.33,0.033783568223162294,-0.16639209195516555,114.19533170832857
4.34,0.04943281553130706,0.06058570915784932,113.95993876609664
4.35,0.1120969689154232,-0.1478624420752735,113.6908238012416
4.36,0.12015666709987544,0.07561762737502017,113.38732559763358
4.37,0.15091784850386813,-0.13166461330386223,112.88281769054662
4.38,0.17469395814800226,0.09647909836339304,112.07481157985163
4.39,0.25535810414406174,-0.11775696597828032,110.91900578484767
4.4,0.20720140749195962,0.10572310347201334,109.5502883960272
4.41,0.20780588485579352,-0.10905427648412877,108.15908965879132
4.42,0.11088801418775537,0.07969831431486157,106.79037226997085
4.43,0.06857459871938112,-0.18088269455786765,105.57836310392835
4.44,-0.012089547276678356,0.015406675181033848,104.61364877045538
4.45,-0.004499998152985832,-0.19245852077496875,103.90680872762974
4.46,-0.029485062524787768,0.007911535903774138,103.46908364965913
4.47,-0.022499990764929163,-0.20749043899213962,103.22245003321949
4.48,-0.05500744010888652,0.006745625349533739,103.11004329114245
4.49,-0.020753722824964512,-0.19995366005222848,103.09880261693475
4.5,-0.049768636288992564,-0.010076798361649165,103.07632126851934
4.51,-0.028343271948657035,-0.21502721793205076,102.95267385223458
4.52,-0.045738787196766446,-0.004830200867567368,103.17748733638868
4.53,-0.026597004008692384,-0.21327835210069018,103.4128802786206
4.54,-0.043388041892967875,-0.005413156144687568,103.26675151392045
4.55,-0.01323133785280909,-0.19995366005222848,102.85216900049511
4.56,-0.0781790723891867,-0.007744977253168367,102.21211178678583
4.57,-0.14836561074545826,-0.32041720410285257,101.51651241816789
4.58,-0.06662683832480516,-0.13974270785824214,100.92207911741929
4.59,0.5314699311130879,-0.0656241083386739,100.36070662316394
4.6,1.275648730144178,0.7536362543284638,99.82247669345385
4.61,0.9189399213306293,1.1241876122636536,99.26176541532836
4.62,-0.26556705517770124,1.146797949083387,98.62170820161907
4.63,-0.5242833668986181,0.07449335648343122,97.95983085562425
4.64,-0.4523505606023818,0.051883019663697766,97.27547216121401
4.65,-0.1489700881092922,-0.19708052332927892,96.59111346680378
4.66,-0.05614923068501725,0.0241093646751854,95.95171746922435
4.67,0.02102237943111292,-0.20345139171494966,95.35662295234589
4.68,0.01054477179132501,0.014240764626793448,94.89707774208973
4.69,0.06044773638339178,-0.1849217418350576,94.48183401253453
4.7,0.032037300283197644,0.018904406843755044,94.05534960877164
4.71,0.06971638929551185,-0.18896078911224756,93.69630925025496
4.72,0.06044773638339178,0.0351022356151663,93.39347226277681
4.73,0.09235070836351522,-0.19187556549784857,93.11311662371406
4.74,0.07320892517544116,0.033936325060925907,92.79837774589834
4.75,0.11726860858378006,-0.1704311392323555,92.48430008421248
4.76,0.12076114446370936,0.05304893021793816,92.23766646777285
4.77,0.18396261106012232,-0.1455306209667927,92.08029702886499
4.78,0.20605961691582886,0.09764500891763343,92.04657500624188
4.79,0.2593879532362878,-0.11313496342397017,92.3725545582653
4.8,0.27624615527210045,0.12312848246031645,93.68506857604726
4.81,0.33306702747248873,-0.07549270838706584,96.69227953467312
4.82,0.31741778016434397,0.14453126906315805,101.21367543068973
4.83,0.326686433076464,-0.0679559294471547,106.01608818189897
4.84,0.2779924232120651,0.1358285795690065,109.76319998984371
4.85,0.2547536267802278,-0.10210045282133781,112.2546623671749
4.86,0.17932828460406228,0.09881091947187383,113.8475320240196
4.87,0.1520596390799989,-0.1449476656896725,114.72298217996081
4.88,0.08657459133132445,0.04959283821786841,115.16004604180155
4.89,0.09698503481957525,-0.15073557879822305,115.37361885174793
4.9,0.04768654759134241,0.041473104000837056,115.42982222278646
4.91,0.08597011396749053,-0.1727629603408363,115.39610020016335
4.92,0.04533580228754384,0.029314322506615753,115.2836934580863
4.93,0.06736564399171328,-0.16872391306364634,115.16004604180155
4.94,0.02679849646330369,0.04551215127802701,115.07078186426978
4.95,0.05930594580726105,-0.18088269455786765,114.98085647060815
4.96,0.060985049595688595,0.052465974940817964,114.74546352837622
4.97,0.1520596390799989,-0.15365035518382403,114.42014519248265
4.98,0.14164919559174807,0.06753953282064026,114.02738281134286
4.99,0.20605961691582886,-0.12121305797835008,113.36484424921818
5.0,0.2176118509802104,0.09647909836339304,112.35516721891437
5.01,0.2907536120041145,-0.12179601325547028,111.02017185271701
5.02,0.2617386985400864,0.1173405693517659,109.51656637340409
5.03,0.244343183291977,-0.10443227392981862,108.01296089409115
5.04,0.16428351465975144,0.09647909836339304,106.64424350527068
5.05,0.12828352943586477,-0.17796791817226665,105.53340040709755
5.06,0.03257461349549446,0.026982501398134955,104.62488944466308
5.07,0.032037300283197644,-0.2069074837150194,104.00731357936921
5.08,-0.0016119396368904474,0.018904406843755044,103.61455119822942
5.09,0.025656705887172955,-0.19245852077496875,103.35667690758208
5.1,-0.01558208315660766,0.0015406675181033848,103.26675151392045
5.11,-0.0028208943645582833,-0.21677608376341137,103.27799218812815
5.12,-0.0271343172209892,0.007911535903774138,103.26675151392045
5.13,0.0018805962430388553,-0.2098222601006204,103.17748733638868
5.14,-0.025388049281024547,0.020070317397995443,103.05383992010393
5.15,-0.00047014906075971383,-0.2098222601006204,102.86340967470282
5.16,-0.030022375737084585,0.00441380424105294,102.5823928195102
5.17,0.00879850385136036,-0.20865634954638002,102.23459313520124
5.18,-0.03640297013310927,-0.004247245590447169,101.7862885991528
5.19,-0.1362088993172428,-0.3047606909459101,101.23615677910514
5.2,-0.06541788359713732,-0.11717401070116013,100.57427943311032
5.21,0.47283562682119795,-0.10501522920693881,99.91240208711548
5.22,1.2368278505557329,0.6893862548572874,99.2723448734062
5.23,1.0100145108149396,1.0703475284553379,98.59922685320367
5.24,-0.2301715473176485,1.2255385511572654,97.95983085562425
5.25,-0.4448281756302264,0.08548622742341212,97.36539755487564
5.26,-0.46336548145446654,0.061168664434969516,96.78154371220488
5.27,-0.15709695044528152,-0.19882938916063952,96.17586973724858
5.28,-0.07065668741703128,0.003247893686812541,95.58143643649997
5.29,0.014641785035088232,-0.20520025754631027,95.03130461645232
5.3,0.011686562367455744,0.019487362120875245,94.51555603515766
5.31,0.04594027965137775,-0.20923930482350023,94.05534960877164
5.32,0.03492535879929303,-0.017571937638908873,93.65134655342415
5.33,0.061589526959522516,-0.21327835210069018,93.33726889173829
5.34,0.05870146844342713,-0.008327932530288566,93.05691325267554
5.35,0.08536563660365662,-0.1953316574979183,92.77589639748294
5.36,0.07206713459931043,-0.019320803470269474,92.47305941000478
5.37,0.09873130275953991,-0.19070965494360817,92.14774107411121
5.38,0.1120969689154232,0.010784672626723692,91.83366341242535
5.39,0.16482082787204827,-0.1837558312808172,91.63199249281655
5.4,0.19444021869991024,0.03568519089228651,91.58702979598573
5.41,0.2512610909002985,-0.1478624420752735,91.75497869297143
5.42,0.2843730176080898,0.08315440631493133,92.68663221995116
5.43,0.3260819557126301,-0.11313496342397017,95.16619270694477
5.44,0.31681330280051,0.09356432197779203,99.26176541532836
5.45,0.31332076692058075,-0.09864436082126807,104.11972032144625
5.46,0.27967152700049264,0.08894231942348188,108.31579788156931
5.47,0.2483730323842031,-0.13166461330386223,111.32300884019517
5.48,0.1764402260879669,0.044929196000906814,113.12945130698624
5.49,0.14104471822791415,-0.16872391306364634,114.10540631466694
5.5,0.07844772899533511,0.015989630458154047,114.73422285416851
5.51,0.07495519311540581,-0.1982464338835193,115.04830051585436
5.52,0.05406714198736709,-0.01120106925323812,115.04830051585436
5.53,0.0813357875114305,-0.1935827916665577,115.04830051585436
5.54,0.05232087404740244,-0.01178402453035832,115.05954119006208
5.55,0.06394027226332108,-0.2109881706548608,114.8796904027388
5.56,0.02740297382713761,-0.0013741088674976134,114.56561274105295
5.57,0.05292535141123636,-0.21444426265493058,114.2627757535748
5.58,0.06682833077941647,0.0009577122409831851,113.98242011451205
5.59,0.10571637451939851,-0.20403434699206988,113.55593571074915
5.6,0.12425368034363866,0.017738496289514644,113.0170445649092
5.61,0.14742531262393885,-0.17796791817226665,112.32144519629126
5.62,0.18107455254402693,0.054214840772178564,111.26680546915664
5.63,0.2547536267802278,-0.15539922101518464,109.83064403508995
5.64,0.25300735884026315,0.04842692766362801,108.33827922998472
5.65,0.2367536341682845,-0.13108165802674202,106.95832116695654
5.66,0.19558200927604097,0.05479779604929876,105.69076984600541
5.67,0.1596491882036914,-0.17738496289514646,104.53496405100145
5.68,0.03955968525535306,-0.016988982361788675,103.67075456926794
5.69,0.051716396683568526,-0.21677608376341137,103.16624666218097
5.7,0.0006716415153710198,-0.01990375874738967,102.86340967470282
5.71,0.011686562367455744,-0.2387618256433732,102.77348428104118
5.72,-0.01088059254901052,-0.03206254024161098,103.3791582559975
5.73,0.009402981215194277,-0.23180800198058224,104.06351695040773
5.74,-0.014373128428939824,-0.02335985074745943,104.06351695040773
5.75,0.003022386819169589,-0.25962329663174605,103.77192063713728
5.76,-0.014373128428939824,-0.028023492964421023,103.51404634648995
5.77,-0.01088059254901052,-0.238178870366253,103.24427016550504
5.78,-0.009738801972879787,-0.04363836645871209,102.9639145264423
5.79,0.005305967971431056,-0.23759591508913278,102.60487416792562
5.8,-0.025992526644858467,-0.04767741373590204,102.1559084157473
5.81,-0.12055965200909806,-0.3047606909459101,101.59519713762182
5.82,-0.12633576904128882,-0.17621905234090607,100.96704181425011
5.83,0.244343183291977,-0.2555426096919046,100.38318797157935
5.84,1.0454100186749924,0.40507063827323586,99.77751399662303
5.85,1.4572605959005016,0.8074763381367793,99.1156366506282
5.86,-0.11129099909697798,1.3228088031110359,98.5099626756719
5.87,-0.3618804484819055,0.2637872628968903,97.8586647877549
5.88,-0.5869475202827342,0.07157858009783022,97.15182474492926
5.89,-0.2853133157296092,-0.20865634954638002,96.57987279259606
5.9,-0.11820890670529949,-0.017571937638908873,96.08594434358695
5.91,-0.012626860488975171,-0.19937070477510827,95.62639913333079
5.92,-0.018470141672703045,-0.02223557985587047,95.18867405536018
5.93,0.023305960583374388,-0.20923930482350023,94.70598628055876
5.94,-0.008597011396749054,-0.01586471147019972,94.32446457362667
5.95,0.03257461349549446,-0.20461730226919006,94.02162758614853
5.96,0.014037307671254313,-0.0025400194217380127,93.68506857604726
5.97,0.03492535879929303,-0.21269539682356997,93.39347226277681
5.98,0.007052235911395708,-0.01236697980747852,93.09063527529865
5.99,0.05057460610743779,-0.18779487855800717,92.84334044272916
6.0,0.04244774377144845,0.010201717349603493,92.63042884891264
6.01,0.11035070097545856,-0.183172876003697,92.45057806158937
6.02,0.1288880067996987,0.034519280338046104,92.3613138840576
6.03,0.1898058922438502,-0.1623530446779756,92.39503590668072
6.04,0.19967902251980418,0.07853240376062118,92.85458111693686
6.05,0.25361183620409705,-0.10443227392981862,94.54927805778077
6.06,0.23272378507605837,0.08952527470060208,98.00479355245507
6.07,0.29364167052020984,-0.09922731609838827,102.94143317802688
6.08,0.23849990210824912,0.11209397185768409,107.75508660344381
6.09,0.21418647925181822,-0.083029487326977,111.23308344653353
6.1,0.15152232586770206,0.08777640886924148,113.55593571074915
6.11,0.11263428212772002,-0.12471078964107128,114.94713444798504
6.12,0.03955968525535306,0.054214840772178564,115.60901179397986
6.13,0.028544764403268343,-0.1582723577381342,115.9006081072503
6.14,-0.026597004008692384,0.008452851518242894,115.93433012987342
6.15,-0.02310446812876308,-0.1843387865579374,115.85630662654935
6.16,-0.050373113652826484,0.014240764626793448,115.80010325551083
6.17,-0.018470141672703045,-0.16580913667804534,115.6764558392261
6.18,-0.043992519256801796,0.026982501398134955,115.49726626803267
6.19,-0.05500744010888652,-0.18142401017233642,115.24997143546318
6.2,-0.06602236096097125,0.025858230506545996,114.8796904027388
6.21,-0.009738801972879787,-0.15768940246101398,114.55437206684525
6.22,-0.003358207576855099,0.052465974940817964,114.20657238253628
6.23,0.04016416261918698,-0.12933279219538144,113.61213908178767
6.24,0.03606714937542376,0.06870544337488067,112.68048555480793
6.25,0.09584324424344452,-0.12237896853259048,111.37921221123369
6.26,0.10685816509552924,0.07853240376062118,109.88684740612847
6.27,0.10685816509552924,-0.09402235826695791,108.46192664626946
6.28,0.07206713459931043,0.10459883258042439,107.07072790903358
6.29,0.011149249155158929,-0.11833992125540052,105.8137560461603
6.3,-0.09329100648503465,0.027565456675255152,104.84904171268731
6.31,-0.1257312916774549,-0.1745118261721969,104.17592369248477
6.32,-0.1861118639093096,0.005579714795293339,103.79440198555268
6.33,-0.1669700807212355,-0.19304147605208896,103.63703254664483
6.34,-0.19249245830533426,0.0003747569638629855,103.61455119822942
6.35,-0.1767760468456524,-0.1935827916665577,103.74943928872187
6.36,-0.2209028944055284,0.007328580626653938,103.86184603079892
6.37,-0.20290290179358508,-0.1953316574979183,103.8393646823835
6.38,-0.23366408319757778,-0.0025400194217380127,103.73819861451416
6.39,-0.20350737915741898,-0.20632452843789922,103.58149039173617
6.4,-0.24004467759360248,0.006162670072413539,103.35667690758208
6.41,-0.20928349618960976,-0.19882938916063952,102.97515520065
6.42,-0.25918646078167656,-0.001957064144617813,102.45940661935532
6.43,-0.27597749866595206,-0.2098222601006204,101.92051547351538
6.44,-0.3694028334540609,-0.11138609759260958,101.35980419538988
6.45,-0.1425894937132675,-0.2654112097402966,100.75346900430372
6.46,0.5610221577894128,0.24758943412547907,100.1140730067243
6.47,1.3133949833080292,0.6193067026149092,99.41847363810636
6.48,0.16891784111581148,1.2782127244113406,98.76783696631924
6.49,-0.5608206653348016,0.5793742661321756,98.13968164294752
6.5,-0.8543280075519372,0.15902187166586015,97.51086510344594
6.51,-0.6240221319312145,-0.15248444462958363,96.95015382532044
6.52,-0.38155954488227634,0.025275275229425798,96.4000220052728
6.53,-0.25569392490174725,-0.17738496289514646,95.86179207556272
6.54,-0.27893272133358454,-0.005996111421807768,95.40158564917671
6.55,-0.23890288701747173,-0.18088269455786765,94.9751012454138
6.56,-0.2504551210818533,0.010201717349603493,94.60482021268942
6.57,-0.20290290179358508,-0.16639209195516555,94.25702052838045
6.58,-0.24118646816973321,0.020070317397995443,93.9317021924869
6.59,-0.20176111121745435,-0.16522618140092515,93.64010587921643
6.6,-0.2209028944055284,0.0246923199523056,93.3597502401537
6.61,-0.18087306008941562,-0.1565234919067736,93.05691325267554
6.62,-0.18490290918164176,0.05538075132641896,92.82085909431375
6.63,-0.1257312916774549,-0.12758392636402083,92.59670682628952
6.64,-0.13849248046950427,0.04609510655514721,92.40561536475855
6.65,-0.07005221005319737,-0.11313496342397017,92.40561536475855
6.66,-0.06662683832480516,0.08835936414636168,92.70911356836658
6.67,0.0018805962430388553,-0.07374384255570525,94.04410893456394
6.68,-0.017865664308869128,0.12021370607471545,97.20802811596778
6.69,0.028544764403268343,-0.059836195230123346,101.94299682193079
6.7,-0.03123133046475242,0.126001619183266,106.81285361838624
6.71,-0.03640297013310927,-0.0667900188929143,110.61616879736953
6.72,-0.1425894937132675,0.09881091947187383,113.17441400381706
6.73,-0.1599850089613769,-0.10268340809845802,114.75670420258392
6.74,-0.25394765696178256,0.061168664434969516,115.56404909714904
6.75,-0.26556705517770124,-0.1362866158581724,115.92308945566572
6.76,-0.315470019769768,0.043804925109317855,116.03549619774276
6.77,-0.3021043536138847,-0.13803548168953297,115.99053350091195
6.78,-0.3571789578743083,0.03972423816947646,115.91184878145802
6.79,-0.3403879199900328,-0.1496113079066341,115.80010325551083
6.8,-0.37752969579005025,0.043804925109317855,115.60901179397986
6.81,-0.3531491087820822,-0.1449476656896725,115.36237817754022
6.82,-0.39841774691808896,0.033936325060925907,115.09326321268519
6.83,-0.3421341879299975,-0.14324043952096333,114.80100568328487
6.84,-0.3531491087820822,0.046678061832267415,114.50940937001442
6.85,-0.27369391751369054,-0.12587670019531166,114.06110483396598
6.86,-0.300962563037754,0.055963706603539165,113.2643393974787
6.87,-0.2272834888015531,-0.09806140554414787,112.18721832192867
6.88,-0.22204468498165914,0.08835936414636168,110.84032106539374
6.89,-0.159380531597543,-0.09922731609838827,109.33737680221068
6.9,-0.24353721347353177,0.10110110091770319,107.81128997448235
6.91,-0.23305960583374385,-0.083029487326977,106.42009123724645
6.92,-0.3305147897140788,0.07216153537495043,105.27552611645021
6.93,-0.38216402224611024,-0.14844539735239368,104.44503865733981
6.94,-0.4448281756302264,0.0246923199523056,103.94053075025285
6.95,-0.43844758123420174,-0.16814095778652616,103.72695794030646
6.96,-0.4831117420063745,0.029314322506615753,103.68199524347564
6.97,-0.45698488705844187,-0.17505314178666564,103.67075456926794
6.98,-0.5039326289828762,0.010784672626723692,103.70447659189105
6.99,-0.45698488705844187,-0.1710140945094757,103.71571726609876
7.0,-0.5126639686826994,-0.00020819831325721416,103.62579187243712
7.01,-0.46511174939443123,-0.1692652286781151,103.50280567228224
7.02,-0.5184400857148902,0.011950583180964092,103.22245003321949
7.03,-0.48015651933874204,-0.16289436029244436,102.95267385223458
7.04,-0.5254251574747488,0.016572585735274245,102.55991147109481
7.05,-0.4819027872787067,-0.1698481839552353,102.01044086717701
7.06,-0.6536415227590765,-0.036684542795921135,101.42658702450625
7.07,-0.5898355787988295,-0.30359478039166965,100.78719102692683
7.08,-0.31311927446596943,-0.007162021976048167,100.21523907459364
7.09,0.5819102089174516,0.2447162974025295,99.59832442542962
7.1,1.0268055486992151,1.0025997973214404,98.90206384068182
7.11,-0.422193856562223,1.1600810014691971,98.22894582047928
7.12,-0.9163876835722194,0.5614275715294037,97.61203117131528
7.13,-1.093298058720946,-0.05059219012150304,96.99511652215126
7.14,-0.8310892111200999,0.04205605927795726,96.46746605051902
7.15,-0.5648505144270276,-0.14324043952096333,96.00792084026287
7.16,-0.5457087312389536,0.0241093646751854,95.58143643649997
7.17,-0.47202965700275273,-0.1466965315210331,95.13247068432166
7.18,-0.5068878516505086,0.033936325060925907,94.66102358372794
7.19,-0.446507279418654,-0.1362866158581724,94.32446457362667
7.2,-0.4917759175546607,0.03106318833797635,94.06659028297933
7.21,-0.432066986838177,-0.14032566313536235,93.84243801495512
7.22,-0.4865371137347667,0.036268146169406705,93.59514318238563
7.23,-0.4163505753784952,-0.13512070530393197,93.29230619490747
7.24,-0.4506042926624172,0.05304893021793816,93.05691325267554
7.25,-0.3792759637300149,-0.12063010270122988,92.88830313955998
7.26,-0.3937834204620289,0.06233457498920992,92.73159491678197
7.27,-0.3096267385860401,-0.09110758188135691,92.60794750049723
7.28,-0.31251479710213553,0.10630605874913354,92.59670682628952
7.29,-0.22614169822542238,-0.05521419267581319,93.21362147545354
7.3,-0.24293273610969787,0.13412135340029735,95.32290092972278
7.31,-0.1767760468456524,-0.033811406072971575,99.45219566072947
7.32,-0.21855214910172985,0.16247796366592993,104.72539429640256
7.33,-0.17852231478561706,-0.01120106925323812,109.26993275696445
7.34,-0.2580446702055458,0.1526510032801894,112.4338519383683
7.35,-0.2702013816337613,-0.05638010323005359,114.42014519248265
7.36,-0.3705446240301916,0.09706205364051324,115.50850694224039
7.37,-0.3520073182059515,-0.0824465320498568,116.01301484932735
7.38,-0.43495504535427243,0.07216153537495043,116.24840779155927
7.39,-0.39492521103815964,-0.10268340809845802,116.3158518368055
7.4,-0.4616192135145019,0.06345884588079888,116.24840779155927
7.41,-0.4140669942262337,-0.10618113976117921,116.21534698506603
7.42,-0.4697460758504912,0.05130006438657757,116.05797754615817
7.43,-0.4239401245021877,-0.10963723176124897,115.9006081072503
7.44,-0.4882833816747314,0.06695657754352007,115.7214185360569
7.45,-0.4001640148580536,-0.09402235826695791,115.48602559382498
7.46,-0.42568639244215234,0.08373736159205153,115.23873076125548
7.47,-0.33165658029020956,-0.08357080294144575,114.8684497285311
7.48,-0.3763207410623824,0.10284996674906378,114.30773845040561
7.49,-0.27308944014985664,-0.04538723229007269,113.49973233971063
7.5,-0.2777237666059167,0.12021370607471545,112.33268587049896
7.51,-0.19887305270135897,-0.044221321735832285,110.91900578484767
7.52,-0.31137300652600475,0.1358285795690065,109.47160367657327
7.53,-0.28235809306197673,-0.04709445845878184,107.99047954567575
7.54,-0.3937834204620289,0.09010822997772229,106.63300283106298
7.55,-0.40594013189024436,-0.11138609759260958,105.55588175551296
7.56,-0.4992983025268161,0.04900988294074821,104.75911631902567
7.57,-0.4517460832385479,-0.11950583180964092,104.31081178297723
7.58,-0.5155520271987948,0.06000275388072912,104.11972032144625
7.59,-0.4604774229383712,-0.12700097108690064,103.9960729051615
7.6,-0.5318057518707735,0.04438788038643806,103.96235088253839
7.61,-0.4714923437904559,-0.11833992125540052,104.00731357936921
7.62,-0.538790823630632,0.034519280338046104,103.95177142446055
7.63,-0.47323861173042053,-0.12237896853259048,103.8056426597604
7.64,-0.5381863462667982,0.0351022356151663,103.55900904332076
7.65,-0.475522192882682,-0.11892287653252072,103.24427016550504
7.66,-0.538790823630632,0.05654666188065936,102.93019250381919
7.67,-0.4691415984866573,-0.13278888419545118,102.45940661935532
7.68,-0.6402758566031932,-0.0007911535903774138,101.81934940564604
7.69,-0.5700893182469216,-0.2630793886318158,101.21367543068973
7.7,-0.3595297031781069,0.0015406675181033848,100.60800145573343
7.71,0.5035968082251906,0.24121856573980832,99.968605458154
7.72,1.0523279262833138,1.029249181418364,99.36227026706784
7.73,-0.2342013964098746,1.2620148956399293,98.67791157265759
7.74,-0.8595668113718311,0.7096231309058887,97.98231220403966
7.75,-1.0318428600644978,0.013116493735204491,97.42160092591416
7.76,-0.8189324996918844,0.06462475643503927,96.84898775745111
7.77,-0.5213953083825227,-0.11255200814684997,96.36696119877955
7.78,-0.5045371063467101,0.05130006438657757,95.98543949184747
7.79,-0.43495504535427243,-0.1478624420752735,95.53647373966916
7.8,-0.48364905521867135,0.018904406843755044,95.09874866169855
7.81,-0.4035893865864458,-0.15190148935246345,94.79591167422039
7.82,-0.45758936442227577,0.019487362120875245,94.49307468674225
7.83,-0.38908192985443174,-0.1449476656896725,94.19023769926409
7.84,-0.43844758123420174,0.025858230506545996,93.9317021924869
7.85,-0.36416402963416694,-0.132205928918331,93.67382790183956
7.86,-0.40184311864648115,0.03568519089228651,93.50521778872398
7.87,-0.3270222538341495,-0.11600810014691973,93.31478754332288
7.88,-0.3491192596898561,0.06637362226639987,93.04567257846784
7.89,-0.25979093814551046,-0.11371791870109037,92.87706246535227
7.9,-0.28410436100194136,0.08490327214629192,92.88830313955998
7.91,-0.179126792149451,-0.07549270838706584,93.33726889173829
7.92,-0.2139178226456698,0.10863787985761435,95.13247068432166
7.93,-0.11995517464526413,-0.045970187567192886,98.99198923434345
7.94,-0.17099992981346163,0.1369944901232469,104.04103560199232
7.95,-0.1286865143450874,-0.05117514539862324,108.5518520399311
7.96,-0.22614169822542238,0.11209397185768409,111.78321526658118
7.97,-0.2139178226456698,-0.06391688216996474,113.88125404664271
7.98,-0.31721628770973265,0.08490327214629192,115.1045038868929
7.99,-0.2916939101256339,-0.11833992125540052,115.66521516501838
8.0,-0.38505208076220565,0.04322196983219766,115.88936743304261
8.01,-0.3311192670779128,-0.12641801580978043,115.93433012987342
8.02,-0.39895506013038573,0.04263901455507746,115.88936743304261
8.03,-0.3368953841101035,-0.14032566313536235,115.81134392971855
8.04,-0.4111789357101383,0.04089014872371686,115.7214185360569
8.05,-0.3461640370222236,-0.13512070530393197,115.7101778618492
8.06,-0.40244759601031505,0.0374340567236471,115.59777111977216
8.07,-0.31372375182980333,-0.12816688164114104,115.32865615491711
8.08,-0.35778343523814227,0.05130006438657757,114.96961579640045
8.09,-0.23594766434983924,-0.10847132120700857,114.56561274105295
8.1,-0.28356704778964453,0.06287589060367867,114.00490146292746
8.11,-0.1901417130015357,-0.09981027137550846,113.2755800716864
8.12,-0.1901417130015357,0.08894231942348188,112.17597764772097
8.13,-0.10081339145719007,-0.0818635767727366,110.63865014578492
8.14,-0.2139178226456698,0.08665213797765253,109.04511927281037
8.15,-0.18087306008941562,-0.07257793200146485,107.5421750096273
8.16,-0.3027088309777186,0.06753953282064026,106.17279640467696
8.17,-0.3194998688619941,-0.16289436029244436,105.10691600333465
8.18,-0.40419386395027973,0.014823719903913648,104.31081178297723
8.19,-0.36241776169420226,-0.1692652286781151,103.8056426597604
8.2,-0.42273116977451985,0.007328580626653938,103.54776836911306
8.21,-0.3711491013940255,-0.1692652286781151,103.4241209528283
8.22,-0.4279699735944138,0.009035806795363093,103.23302949129733
8.23,-0.3612759711180715,-0.16289436029244436,102.5823928195102
8.24,-0.4337460906266046,-0.0025400194217380127,102.23459313520124
8.25,-0.37168641460632235,-0.16580913667804534,102.24583380940895
8.26,-0.42682818301828307,0.006745625349533739,102.22335246099354
8.27,-0.36765656551409626,-0.1745118261721969,102.07788491242324
8.28,-0.4140669942262337,0.015406675181033848,101.76380725073739
8.29,-0.35549985408588075,-0.16464322612380494,101.28111947593597
8.3,-0.485395323158636,-0.020486714024509873,100.58552010731802
8.31,-0.4639699588183005,-0.30417773566878986,100.01290693885495
8.32,-0.3188953914981602,-0.07490975310994565,99.4971583575603
8.33,0.4664550324251732,0.13528726395453775,98.88024370839628
8.34,1.1033726814515112,0.9585866738988654,98.19522379785617
8.35,0.02740297382713761,1.2521462955915372,97.55582780027676
8.36,-0.704686277927274,0.8462845037279241,96.90519112848963
8.37,-0.9042309721440039,0.03106318833797635,96.36696119877955
8.38,-0.7429698443034221,0.04900988294074821,95.90675477239354
8.39,-0.42682818301828307,-0.15248444462958363,95.4240669975921
8.4,-0.38854461664213497,0.026982501398134955,94.93013854858299
8.41,-0.3096267385860401,-0.16406027084668476,94.52679670936536
8.42,-0.3363580708978067,0.038017012000767306,94.15651567664098
8.43,-0.2719476495737259,-0.15190148935246345,93.77499396970889
8.44,-0.3061342027061108,0.03335336978380571,93.49397711451628
8.45,-0.2516640758095211,-0.160604178846615,93.25858417228436
8.46,-0.28994764218566926,0.0368511014465269,92.97822853322161
8.47,-0.2307760246814824,-0.1496113079066341,92.67539154574345
8.48,-0.2603282513578073,0.033936325060925907,92.42809671317396
8.49,-0.1971267847613943,-0.13915975258112193,92.23766646777285
8.5,-0.22318647555778987,0.05825388804936852,92.01351419974863
8.51,-0.13385815401344425,-0.11542514486979952,91.83366341242535
8.52,-0.1390969578333382,0.10226701147194359,91.85614476084076
8.53,-0.04627610040906326,-0.06620706361579409,92.22642579356514
8.54,-0.06662683832480516,0.1144257929661649,93.71879059867037
8.55,0.00879850385136036,-0.049426279567262636,97.44408227432957
8.56,-0.020216409612667696,0.14336535850891766,102.49312864197844
8.57,0.007052235911395708,-0.04305541118159189,107.02576521220277
8.58,-0.06891041947706664,0.13120657701469635,110.35829450672219
8.59,-0.07529101387309133,-0.0783658451100154,112.50129598361453
8.6,-0.16173127690134156,0.09589614308627284,113.78008797877337
8.61,-0.16576112599356768,-0.12004714742410968,114.39766384406725
8.62,-0.24353721347353177,0.04263901455507746,114.55437206684525
8.63,-0.21102976412957442,-0.15768940246101398,114.56561274105295
8.64,-0.22956706995381457,0.06233457498920992,114.58809408946836
8.65,-0.1559551598691508,-0.13915975258112193,114.58809408946836
8.66,-0.1599850089613769,0.07969831431486157,114.52065004422214
8.67,-0.09214921590890392,-0.10268340809845802,114.39766384406725
8.68,-0.1489700881092922,0.08548622742341212,114.20657238253628
8.69,-0.1049104047009533,-0.10097618192974886,113.95993876609664
8.7,-0.15125366926155365,0.09589614308627284,113.71264393352715
8.71,-0.15185814662538757,-0.11600810014691973,113.4210476202567
8.72,-0.1976640979736911,0.07391040120631102,112.96150241000055
8.73,-0.16750739393353234,-0.1333718394725714,112.18721832192867
8.74,-0.21277603206953907,0.07216153537495043,111.08761589796323
8.75,-0.1930297715176311,-0.1611871341237352,109.75195931563601
8.76,-0.2534103437494858,0.013116493735204491,108.1366083103759
8.77,-0.22553722086158845,-0.18550469711217782,106.48687406636282
8.78,-0.25569392490174725,0.014240764626793448,105.16311937437317
8.79,-0.21976110382939767,-0.16755800250940595,104.10847964723854
8.8,-0.26617153254153514,0.003247893686812541,103.31171421075126
8.81,-0.21915662646556375,-0.1837558312808172,102.79596562945659
8.82,-0.2620745192977719,0.0038308489639327405,102.5711521453025
8.83,-0.22493274349775452,-0.1953316574979183,102.5486707968871
8.84,-0.26382078723773655,0.011950583180964092,102.59363349371792
8.85,-0.23252229262144705,-0.18088269455786765,102.70604023579496
8.86,-0.25629840226558115,0.012533538458084291,102.73976225841807
8.87,-0.2301715473176485,-0.186087652389298,102.5486707968871
8.88,-0.256835715477878,0.011950583180964092,102.17838976416272
8.89,-0.3368953841101035,-0.24051069147473378,101.81934940564604
8.9,-0.3485147823260222,-0.13803548168953297,101.48279039554477
8.91,-0.02135820018879843,-0.20807339426925983,101.02324518528863
8.92,0.7762160993142876,0.4873089720098354,100.40566931999474
8.93,1.255969633743807,0.9278982425247521,99.73255129979222
8.94,-0.17852231478561706,1.4727532283188813,99.09315530221279
8.95,-0.5294550065669749,0.4021975015502863,98.47624065304879
8.96,-0.7383355178473621,0.1265845744603862,97.86990546196262
8.97,-0.4389848944464985,-0.14436471041255228,97.32043485804483
8.98,-0.2783282439697506,0.0374340567236471,96.74782168958177
8.99,-0.1901417130015357,-0.16755800250940595,96.14214771462547
9.0,-0.19652230739756038,0.0223604988438248,95.67070061403174
9.01,-0.15011187868542292,-0.16522618140092515,95.28984012322952
9.02,-0.16173127690134156,0.04551215127802701,94.86335571946663
9.03,-0.13271636343731352,-0.16347731556956455,94.42563064149601
9.04,-0.15185814662538757,0.04726101710938761,94.07783095718705
9.05,-0.11935069728143022,-0.1611871341237352,93.74127194708578
9.06,-0.1321118860734796,0.04263901455507746,93.39347226277681
9.07,-0.09214921590890392,-0.1565234919067736,93.14617743020732
9.08,-0.10255965939715472,0.05767093277224832,93.00070988163702
9.09,-0.048022368349027914,-0.13512070530393197,92.82085909431375
9.1,-0.02310446812876308,0.07736649320638078,92.57422547787412
9.11,0.028544764403268343,-0.10788836592988837,92.45057806158937
9.12,0.0679701213555472,0.10343292202618398,92.67539154574345
9.13,0.1016193612756353,-0.06100210578436375,93.73003127287808
9.14,0.1120969689154232,0.14165813234020852,96.56863211838836
9.15,0.12485815770747258,-0.059836195230123346,101.14623138544351
9.16,0.08361936866369196,0.14915327161746822,105.73573254283622
9.17,0.05581340992733175,-0.07141202144722446,109.28117343117216
9.18,-0.0016119396368904474,0.10459883258042439,111.64832717608873
9.19,-0.03297759840471707,-0.11313496342397017,113.10696995857084
9.2,-0.08106713090528209,0.07216153537495043,113.8587726982273
9.21,-0.09557458763729612,-0.13857679730400174,114.09416564045922
9.22,-0.1362088993172428,0.05708797749512812,114.10540631466694
9.23,-0.13332084080114742,-0.15190148935246345,114.00490146292746
9.24,-0.1390969578333382,0.04438788038643806,113.79132865298108
9.25,-0.13043278228505203,-0.1623530446779756,113.60089840757996
9.26,-0.14144770313713675,0.03914128289235626,113.4435289686721
9.27,-0.11767159349300267,-0.14207452896672293,113.23061737485558
9.28,-0.13560442195340888,0.043804925109317855,112.95026173579284
9.29,-0.13271636343731352,-0.16755800250940595,112.47881463519913
9.3,-0.14144770313713675,0.030480233060856152,111.80569661499659
9.31,-0.11706711612916874,-0.15768940246101398,110.9864498300939
9.32,-0.09792533294109469,0.030480233060856152,109.86436605771306
9.33,-0.0474850551367311,-0.13512070530393197,108.34951990419242
9.34,-0.00745522082061832,0.07391040120631102,106.58804013423216
9.35,0.0012761188792049375,-0.12004714742410968,104.96144845476435
9.36,0.05635072313962856,0.1040158773033042,103.55900904332076
9.37,0.10047757069950457,-0.09169053715847711,102.35824055148599
9.38,0.08019399693529976,0.09244005108620308,101.43782769871396
9.39,0.04358953434757919,-0.07432679783282545,100.83215372375766
9.4,-0.03123133046475242,0.07853240376062118,100.49559471365639
9.41,-0.07703728181305597,-0.15131853407534324,100.26020177142446
9.42,-0.15185814662538757,0.017155541012394446,100.37194729737163
9.43,-0.1559551598691508,-0.16697504723228573,101.04572653370403
9.44,-0.16347754484130622,0.011950583180964092,101.3710448695976
9.45,-0.179126792149451,-0.18837783383512735,101.22491610489745
9.46,-0.17738052420948633,0.019487362120875245,100.93331979162699
9.47,-0.16401485805360302,-0.17563609706378586,100.5405574104872
9.48,-0.1861118639093096,0.009035806795363093,100.22647974880134
9.49,-0.16173127690134156,-0.17505314178666564,99.86743939028467
9.5,-0.1762387336333556,0.00441380424105294,99.48591768335258
9.51,-0.1623357542651755,-0.1704311392323555,99.09315530221279
9.52,-0.17160440717729555,0.008452851518242894,98.64418955003448
9.53,-0.1628730674774723,-0.17505314178666564,98.1059596203244
9.54,-0.21741035852559912,-0.026274627133060426,97.55582780027676
9.55,-0.256835715477878,-0.3001386883915999,97.00635719635898
9.56,-0.07589549123692524,-0.07607566366418606,96.50118807314213
9.57,0.6567310737297831,0.13178953229181656,95.94047679501665
9.58,1.2837755924801673,0.9453036215130551,95.41282632338441
9.59,0.08885817248358592,1.1826913382889306,94.93013854858299
9.6,-0.446507279418654,0.7964834671967984,94.43687131570373
9.61,-0.694208670287486,-0.005996111421807768,93.99914623773311
9.62,-0.5242833668986181,0.02989727778373595,93.67382790183956
9.63,-0.2794700345458813,-0.17796791817226665,93.25858417228436
9.64,-0.18087306008941562,-0.00020819831325721416,92.87706246535227
9.65,-0.13446263137727815,-0.1571064471838938,92.56298480366641
9.66,-0.1251939784651581,0.0038308489639327405,92.30511051301907
9.67,-0.10779846321704868,-0.1710140945094757,92.12525972569581
9.68,-0.10081339145719007,0.0217775435667046,91.99103285133322
9.69,-0.09154473854507,-0.1611871341237352,91.90110745767159
9.7,-0.08691041208900996,0.017738496289514644,91.75497869297143
9.71,-0.06313430244487586,-0.14611357624391288,91.5195857507395
9.72,-0.045738787196766446,0.030480233060856152,91.33973496341623
9.73,-0.023641781341059896,-0.1345377500268118,91.21674876326135
9.74,-0.003358207576855099,0.03914128289235626,91.0818606727689
9.75,0.029082077615565156,-0.12296192380971067,91.00317595331497
9.76,0.0813357875114305,0.08257145103781113,91.04813865014579
9.77,0.12714173885973404,-0.0818635767727366,91.37345698603934
9.78,0.16079097877982212,0.09589614308627284,92.78713707169064
9.79,0.1869178337277548,-0.05404828212157279,96.50118807314213
9.8,0.18745514694005164,0.10805492458049415,101.7862885991528
9.81,0.1898058922438502,-0.045970187567192886,106.71168755051691
9.82,0.15091784850386813,0.1138428376890447,110.26836911306054
9.83,0.11612681800764932,-0.07199497672434466,112.50129598361453
9.84,0.06682833077941647,0.08894231942348188,113.82505067560419
9.85,0.018067156763480433,-0.10847132120700857,114.43072465056049
9.86,-0.016723873732738394,0.0351022356151663,114.56561274105295
9.87,-0.03640297013310927,-0.14382339479808354,114.56561274105295
9.88,-0.04513430983293253,0.018904406843755044,114.48692802159901
9.89,-0.024850736068727734,-0.12587670019531166,114.30773845040561
9.9,-0.0028208943645582833,0.0374340567236471,114.11664698887463
9.91,0.02679849646330369,-0.10559818448405901,113.81381000139649
9.92,0.03895520789151915,0.08086422486910197,113.49973233971063
9.93,0.06682833077941647,-0.07257793200146485,113.253098723271
9.94,0.062194004323356436,0.06520771171215947,113.0058038907015
9.95,0.05232087404740244,-0.0777828898328952,112.55749935465305
9.96,0.01867163412731435,0.05883684332648872,111.88438133445052
9.97,0.007052235911395708,-0.0928564477127175,110.93024645905538
9.98,0.009402981215194277,0.06520771171215947,109.58401041865031
9.99,-0.007992534032915135,-0.10326636337557822,108.05792359092197
