time_s,ECG1,ECG2,NIBP
0.0,-0.04948814940763414,-0.06640476501755534,100.07997175181909
0.01,0.07956918140050978,0.10549409477966239,101.14618375104617
0.02,-0.10916503545801647,-0.12197754708898463,102.11291384035634
0.03,0.026199608509923953,0.05227609160956485,102.78587970155895
0.04,-0.1251759073251922,-0.1384609993983069,103.13465157397353
0.05,0.010673914578117167,0.07158527860048519,103.1007106870607
0.06,-0.05822135224427545,-0.02119301011198575,102.70746454903622
0.07,0.09072827391399592,0.17095694823668503,102.05673582063856
0.08,-0.05773617430890649,-0.046624622246368645,101.2807769232867
0.09,0.09897629881526827,0.17378268291828314,100.49545502264853
0.1,-0.047547437666158286,-0.025902567914649247,99.7429036335124
0.11,0.059191708115013376,0.12809997223244718,99.04653026409405
0.12,-0.10431325610432685,-0.08241726154661123,98.37239402748065
0.13,0.06501384333944092,0.13563526471670878,97.66431690395443
0.14,-0.12372037351908534,-0.10361027165859699,96.92346926892617
0.15,0.004366601418320659,0.2675028831912868,96.27157016511774
0.16,-0.03929941276488593,0.18367275430387647,95.78937549587343
0.17,0.19795259763053655,-0.015070584968523199,95.40783311195683
0.18,0.14118677919236797,-0.9470920741156297,95.05906123954226
0.19,0.12372037351908534,-0.7667160102736177,94.73369687534344
0.2,-0.10479843403969581,-0.14929298234443292,94.49728104236443
0.21,0.02086265122086537,0.22511686296731528,94.2725689634933
0.22,-0.11062056926412336,-0.046624622246368645,94.10403490433995
0.23,0.004366601418320659,0.1045521832191297,93.93550084518661
0.24,-0.18630832718168144,-0.11491321038498939,93.76696678603325
0.25,0.0742322241114512,0.19356282568946984,93.61013648098778
0.26,-0.13245357635572666,-0.06216616299515819,93.4533061759423
0.27,-0.015040515996437825,0.09701689073486809,93.28477211678896
0.28,-0.2280336296234122,-0.16295069997215708,93.08229717072278
0.29,-0.01649604980254471,0.09607497917433538,92.8798222246566
0.3,-0.0844209607541994,-0.024018744793583846,92.65511014578547
0.31,0.04706225973078932,0.14552533610230214,92.44210182102222
0.32,-0.10722432371654063,-0.0668757207978217,92.25133062906392
0.33,0.04026976863562386,0.11868085662712019,92.04885568299774
0.34,-0.17466405673282637,-0.13563526471670878,91.81361022542951
0.35,-0.05579546256743064,0.014599629188256849,91.56666101375343
0.36,-0.27946249077252217,-0.2566709002451607,91.36418606768726
0.37,0.03735870102341008,0.08712681934927474,91.33024518077443
0.38,-0.10576878991043373,-0.11632607772578843,91.7796693385167
0.39,0.04851779353689621,0.06640476501755534,93.65578112200848
0.4,-0.12857215287277496,-0.18838231210653997,99.50648780053339
0.41,0.07132115649923743,0.04521175490556959,109.79525803676313
0.42,-0.012129448384224053,-0.08948159825060649,119.6451374939477
0.43,0.08248024901272355,0.036734550860775296,127.40589684287723
0.44,-0.09315416359084072,-0.17048599245641868,132.56140052739457
0.45,0.059191708115013376,0.03720550664104164,135.06600390647904
0.46,-0.07908400346514083,-0.11538416616525574,136.03156362037845
0.47,0.029110676122137726,0.06640476501755534,136.00932648757347
0.48,-0.19795259763053655,-0.1850856216446755,135.48148717730848
0.49,-0.09703558707379242,-0.016012496529055897,133.78561320707792
0.5,-0.2469555691028017,-0.18602753320520823,130.56122895035935
0.51,-0.04463637005394451,0.06546285345702264,125.12600554266388
0.52,-0.22221149439898463,-0.14740915922336753,118.84694146379087
0.53,0.01601087186717575,0.12386137021005003,113.19753935592135
0.54,-0.2149338253684502,-0.15211871702603103,109.05324002632409
0.55,-0.08684685043104422,0.024018744793583846,106.75111159330578
0.56,-0.2915919391567462,-0.21616870314225461,105.99856020416965
0.57,-0.08345060488346148,0.027786391035714647,106.18933139612795
0.58,-0.25423323813333615,-0.1850856216446755,106.7955858589157
0.59,0.00679249109516547,0.10502313899939604,107.5598410021597
0.6,-0.2086265122086537,-0.15777018638922724,108.25621437157804
0.61,0.01601087186717575,0.10361027165859699,108.39080754381857
0.62,-0.14943480409364032,-0.09513306761380269,107.3128917904836
0.63,-0.0004851779353689621,0.09842975807566713,105.16759366251078
0.64,-0.17708994640967116,-0.10219740431779793,102.72970168184118
0.65,-0.08781720630178214,0.02119301011198575,100.60781106208408
0.66,-0.2906215832860083,-0.21145914533959112,99.04653026409405
0.67,-0.1227500176483474,0.005651469363196199,98.11374106169669
0.68,-0.3289506401801563,-0.24112935949637118,97.72049492367222
0.69,-0.061617597791858186,0.07064336703995248,97.7661395646929
0.7,-0.2503518146503844,-0.15871209794975993,98.13597819450165
0.71,-0.025229252639186028,0.09089446559140554,98.86629245083283
0.72,-0.2421037897491121,-0.16766025777482058,99.79908165323017
0.73,-0.09558005326768554,0.029670214156780048,100.77634512123744
0.74,-0.31682119179593227,-0.2208782609449181,101.59560790878844
0.75,-0.011159092513486128,0.10784887368099413,102.12344721905343
0.76,-0.22124113852824673,-0.11820990084685383,102.34815929792457
0.77,0.04851779353689621,0.2048657644158622,102.24750701259687
0.78,-0.2445296794259569,-0.09748784651513444,101.82031998765956
0.79,0.0024258896768448103,0.15306062858656372,101.21406552487183
0.8,-0.22124113852824673,-0.12009372396791923,100.47321788984357
0.81,0.05870653017964441,0.19403378146973618,99.6972589924917
0.82,-0.32215814908499085,-0.21522679158172192,98.96811511157131
0.83,0.03929941276488593,0.17566650603934852,98.29397887495792
0.84,-0.2571443057455499,-0.15777018638922724,97.65378352525735
0.85,0.038329056894148006,0.16106687685109167,97.03582530836174
0.86,-0.28722533773842557,-0.1497639381246993,96.46351173248682
0.87,0.02328854089771018,0.3744098453117482,95.901731535309
0.88,-0.27946249077252217,-0.06640476501755534,95.44060362345887
0.89,0.2726699996773567,-0.23877458059503942,95.0368241067373
0.9,-0.17320852292671945,-1.359178381848686,94.67751885562565
0.91,0.07908400346514083,-0.2707995736531512,94.3626878701239
0.92,-0.3929941276488593,-0.19638856037106792,94.09350152564286
0.93,-0.012614626319593014,0.24395509417796926,93.85708569266387
0.94,-0.3750425440402077,-0.2406584037161048,93.6440773679006
0.95,-0.04657708179542036,0.12715806067191449,93.4076615349216
0.96,-0.524962526069217,-0.37205506641041647,93.18294945605048
0.97,0.11207610307023025,0.29670214156780045,92.96994113128721
0.98,-0.4177382023526764,-0.2811606008190109,92.734695673719
0.99,-0.052399217019847906,0.11208747570339128,92.52051697354496
1.0,-0.486633469175069,-0.349920144737898,92.30750864878169
1.01,0.008248024901272355,0.17378268291828314,92.10503370271552
1.02,-0.4492747681516589,-0.3141275054376554,91.88032162384438
1.03,0.1256610852605612,0.2952892742270014,91.64507616627617
1.04,-0.4526710136992416,-0.3188370632403189,91.37471944638435
1.05,0.011159092513486128,0.18602753320520823,91.11723685601117
1.06,-0.6215129352076404,-0.47331055916768167,90.8702876443351
1.07,-0.10431325610432685,0.049450356927966746,90.64557556546396
1.08,-0.6317016718503886,-0.5251156949969802,90.51098239322343
1.09,0.047547437666158286,0.16766025777482058,90.58939754574617
1.1,-0.5472807110961893,-0.4469370354727661,91.30800804796948
1.11,0.10479843403969581,0.20439480863559586,93.91326371238165
1.12,-0.47062259730789324,-0.40643483836986,101.42707384963508
1.13,0.13196839842035768,0.19685951615133426,112.35603943556539
1.14,-0.64043487468703,-0.6178939837094511,121.84661364163831
1.15,0.1125612810055992,0.14128673407990497,128.98941477367222
1.16,-0.5186552129094205,-0.48838114413620487,133.29054440831496
1.17,0.18242690369872974,0.24630987307930102,135.2450713443295
1.18,-0.5283587716167997,-0.4563561510780931,135.79514778739943
1.19,0.1853379713109435,0.31271463809685635,135.46978342320062
1.2,-0.5157441452972067,-0.3810032262354771,134.43634193547558
1.21,0.20959686807939162,0.37582271265254724,131.89779766947825
1.22,-0.5516473125145099,-0.3913642534013368,127.20342189681105
1.23,0.1227500176483474,0.28822493752300615,120.58846007504214
1.24,-0.6394645188162921,-0.4897940114770039,113.99573538607818
1.25,0.015525693931806786,0.18367275430387647,108.806290814648
1.26,-0.717092988475326,-0.5934042831356009,105.56083980053526
1.27,-0.07132115649923743,0.07488196906234965,104.10021128787291
1.28,-0.7287372589241811,-0.5971719293777317,103.83102494339187
1.29,-0.04366601418320659,0.08948159825060649,104.26874534702625
1.3,-0.704963540091102,-0.5919914157948019,104.9206444508347
1.31,0.09072827391399592,0.21381392424092288,105.70596635147287
1.32,-0.6642085935201091,-0.5524311302524285,106.25721316995362
1.33,0.07665811378829601,0.2010981181737314,105.94238218445187
1.34,-0.601620639857513,-0.49356165771913474,104.36939763235395
1.35,0.15525693931806786,0.27645104301634743,102.05673582063856
1.36,-0.5919170811501338,-0.4718976918268826,99.79908165323017
1.37,0.07714329172366498,0.20345289707506317,98.09150392889174
1.38,-0.6307313159796507,-0.5138127562705878,97.03582530836174
1.39,0.04026976863562386,0.17095694823668503,96.53022313090169
1.4,-0.6928340917068778,-0.577391786606545,96.39562995866117
1.41,-0.0460919038600514,0.06828858813862074,96.60863828342443
1.42,-0.704478362155733,-0.5830432559697413,97.17041848060227
1.43,0.011159092513486128,0.11067460836259224,98.02479253047687
1.44,-0.703022828349626,-0.6518027998886283,99.03482650998617
1.45,0.028625498186768763,0.11773894506658748,100.02379373210131
1.46,-0.6967155151898295,-0.6211906741713156,100.84305651965231
1.47,0.03978459070025489,0.12480328177058274,101.30418443150243
1.48,-0.653049501006623,-0.5463087051089659,101.34865869711234
1.49,0.07374704617608224,0.20957532221852573,100.93317542628292
1.5,-0.6055020633404647,-0.46059475310049025,100.22509830275669
1.51,0.09946147675063723,0.19167900256840442,99.4058355152057
1.52,-0.5904615473440269,-0.473781514947948,98.60880986045966
1.53,0.2624812630346085,0.3753517568722809,97.85625847132353
1.54,-0.5040998748483516,-0.39560285542373397,97.17041848060227
1.55,0.22997434136488804,0.3433267638141691,96.56416401781452
1.56,-0.563776760898734,-0.46907195714528455,95.98014668783173
1.57,0.20959686807939162,0.29999883202966493,95.43007024476178
1.58,-0.6190870455307956,-0.2943473626664687,94.93617182140962
1.59,0.18242690369872974,0.4996840828625973,94.5089847964723
1.6,-0.4449081667333382,-0.7125560955429875,94.10403490433995
1.61,0.4109457112575109,-0.7591807177893561,93.75643340733617
1.62,-0.45509690337608644,-1.3332758139340366,93.4533061759423
1.63,0.06695455508091677,0.07959152686501314,93.19465321015835
1.64,-0.6389793408809231,-0.38806756293947237,92.95940775259012
1.65,0.1562272951888058,0.28728302596247346,92.77916993932891
1.66,-0.5341809068412273,-0.41020248461199077,92.62233963428343
1.67,0.13924606745089213,0.2514903866622309,92.48657608663213
1.68,-0.550676956643772,-0.4149120424146543,92.34144953569452
1.69,0.022803362962341218,0.13280953003511067,92.19515260934612
1.7,-0.5574694477389375,-0.4403436545490372,92.06055943710561
1.71,0.20911169014402267,0.31459846121792173,91.93649964356217
1.72,-0.48081133395064146,-0.37064219906961743,91.7796693385167
1.73,0.14555338061068862,0.19167900256840442,91.59943152525547
1.74,-0.6064724192112027,-0.5274704738983119,91.40866033329718
1.75,0.24792592497353963,0.2971730973480668,91.206185387231
1.76,-0.537091974453441,-0.4888520999164712,90.98264368377065
1.77,0.18630832718168144,0.23971649215557211,90.78016873770447
1.78,-0.5045850527837206,-0.453530416396495,90.55545665883335
1.79,0.19552670795369173,0.2208782609449181,90.35298171276717
1.8,-0.5273884157460618,-0.4813168074322096,90.21838854052665
1.81,0.16835674357302985,0.17378268291828314,90.30850744715725
1.82,-0.5676581843816857,-0.5670307594406854,91.04935508218551
1.83,0.15040515996437825,0.12527423755084907,93.57619559407495
1.84,-0.678278753645809,-0.6960726432336652,100.87699740656512
1.85,0.1266314411312991,0.057456605192494695,111.64796231203917
1.86,-0.6962303372544606,-0.7492906464037628,121.0823584983943
1.87,0.04657708179542036,-0.04426984334503689,128.2251596304282
1.88,-0.6724566184213815,-0.7285685920720434,132.740467965245
1.89,0.07277669030534431,0.008477204044794299,134.8412918276079
1.9,-0.6156907999832129,-0.6254292761937127,135.37966451657
1.91,0.10673914578117166,0.09560402339406904,134.96418124574058
1.92,-0.5875504797318131,-0.5618502458577554,133.77390945297006
1.93,0.025229252639186028,0.03720550664104164,130.89829706866604
1.94,-0.6928340917068778,-0.6461513305254322,125.48531079377553
1.95,0.010188736642748204,0.0197801427711867,118.26292413380808
1.96,-0.6452866540407196,-0.5976428851579981,111.45719112008086
1.97,0.14118677919236797,0.15164776124576468,106.36956920938917
1.98,-0.5720247858000063,-0.549134439790564,103.42607505125952
1.99,0.23628165452468455,0.25101943088196454,102.11291384035634
2.0,-0.4822668677567483,-0.45117563749516326,101.85426087457239
2.01,0.3046917434117082,0.2853992028414081,102.12344721905343
2.02,-0.4177382023526764,-0.378177491553879,102.57287137679569
2.03,0.29789925231654274,0.29999883202966493,103.02229553453796
2.04,-0.4570376151175623,-0.4224473348989159,103.23530385930121
2.05,0.2163893591745571,0.19544664881053522,102.72970168184118
2.06,-0.40900499951603503,-0.3847708724776079,101.3264215643074
2.07,0.31196941244224263,0.30988890341525827,99.58490295305613
2.08,-0.4657708179542036,-0.43375027362530827,98.04702966328182
2.09,0.18000101402188493,0.17425363869854948,97.08029957397164
2.1,-0.5773617430890648,-0.5425410588668351,96.60863828342443
2.11,0.11789823829465779,0.12527423755084907,96.56416401781452
2.12,-0.4764447325323208,-0.4478789470332988,97.08029957397164
2.13,0.2071709784025468,0.20062716239346506,98.29397887495792
2.14,-0.5395178641302859,-0.5058065080060599,99.6972589924917
2.15,0.14652373648142655,0.12056467974818559,100.94487918039079
2.16,-0.45994868272977607,-0.4507046817148969,101.944379781203
2.17,0.21978560472213984,0.19356282568946984,102.59510850960065
2.18,-0.47159295317863115,-0.47472342650848076,102.86546522949249
2.19,0.24841110290890858,0.22700068608838067,102.75310919005692
2.2,-0.3551502486900803,-0.3244885326035151,102.29198127820678
2.21,0.2881956936091635,0.2952892742270014,101.57337077598348
2.22,-0.43132318454300733,-0.37582271265254724,100.75293761302169
2.23,0.2547184160687051,0.24725178463983372,99.92197107136282
2.24,-0.486633469175069,-0.4356340967463737,99.12494541661678
2.25,0.13002768667888184,0.14269960142070404,98.37239402748065
2.26,-0.5084664762666723,-0.4478789470332988,97.63154639245239
2.27,0.16301978628397126,0.19073709100787173,96.99135104275183
2.28,-0.5283587716167997,-0.4469370354727661,96.429570845574
2.29,0.12129448384224052,0.15258967280629737,95.9462058009189
2.3,-0.5176848570386826,-0.21381392424092288,95.53072253008948
2.31,0.19746741969516757,0.4092605730514581,95.15971352486996
2.32,-0.3163360138605633,-0.6970145547941979,94.846052914779
2.33,0.36679451913893535,-0.8995255403087283,94.6096370818
2.34,-0.39105341590738346,-1.045521832191297,94.4188658898417
2.35,0.11207610307023025,0.18602753320520823,94.29597647170904
2.36,-0.5492214228376651,-0.29858596468886583,94.18362043227347
2.37,0.14555338061068862,0.23406502279237593,94.04785688462216
2.38,-0.46383010621272774,-0.3084760360744592,93.90273033368456
2.39,0.12177966177760949,0.23171024389104417,93.75643340733617
2.4,-0.4681967076310484,-0.30753412451392653,93.61013648098778
2.41,0.1203241279715026,0.22511686296731528,93.47554330874726
2.42,-0.4885741809165448,-0.3442686753747018,93.30700924959392
2.43,-0.004851779353689621,0.08995255403087284,93.12677143633269
2.44,-0.48469275743359314,-0.33814625023123923,92.94770399848225
2.45,0.11498717068244402,0.19544664881053522,92.77916993932891
2.46,-0.5574694477389375,-0.4384598314279718,92.65511014578547
2.47,-0.005336957289058583,0.05321800317009754,92.52051697354496
2.48,-0.5205959246508963,-0.40878961727119173,92.32974578158665
2.49,0.07326186824071328,0.12904188379297987,92.10503370271552
2.5,-0.49682220581781716,-0.39277712074213583,91.84638073693156
2.51,0.0562806405027996,0.09795880229540078,91.6333724121683
2.52,-0.5327253730351204,-0.44646607969249974,91.61113527936334
2.53,0.1038280781689579,0.12339041442978368,92.08279656991056
2.54,-0.4764447325323208,-0.41349917507385525,94.04785688462216
2.55,0.11741306035928882,0.1045521832191297,100.27074294377739
2.56,-0.4390860315089107,-0.41538299819492064,110.78305488346747
2.57,0.13487946603257148,0.0791205710847468,120.67857898167274
2.58,-0.537091974453441,-0.5321800317009754,128.31527853705882
2.59,0.09315416359084072,0.03626359508050894,133.3244852952278
2.6,-0.4318083624783763,-0.41161535195278987,135.82908867431226
2.61,0.08733202836641318,0.06781763235835439,136.7618778767096
2.62,-0.3469022237888079,-0.2783348661374128,136.63781808316617
2.63,0.22075596059287775,0.26043854648729153,135.88526669403004
2.64,-0.3954200173257041,-0.2910506722046043,133.93073975801553
2.65,0.1741788787974574,0.2208782609449181,130.21362745335557
2.66,-0.40512357603308335,-0.293405451105936,124.22715722717935
2.67,0.14118677919236797,0.19591760459080157,117.60049165130256
2.68,-0.4085198215806661,-0.2943473626664687,111.95108954343304
2.69,0.0742322241114512,0.11868085662712019,108.01979853859905
2.7,-0.42792693899542456,-0.32966904618644494,105.96461931725682
2.71,0.08733202836641318,0.11538416616525574,105.45901713979679
2.72,-0.3546650707547113,-0.2707995736531512,105.81832239090843
2.73,0.14361266886921278,0.16389261153268977,106.41404347499909
2.74,-0.3032362096056013,-0.22370399562651622,107.16659486413522
2.75,0.21347829156234333,0.236890757473974,107.82902734664074
2.76,-0.26199608509923955,-0.17613746181961487,107.82902734664074
2.77,0.22851880755878115,0.26043854648729153,106.52639951443466
2.78,-0.2634516189053464,-0.16342165575242343,104.30268623393908
2.79,0.20911169014402267,0.24630987307930102,101.93267602709513
2.8,-0.2867401598030566,-0.17707937338014756,100.03432711079839
2.81,0.0742322241114512,0.12857092801271353,98.85575907213574
2.82,-0.5991947501806681,-0.4874392325756722,98.28227512085004
2.83,-0.043180836247837626,0.0032966904618644496,98.16991908141448
2.84,-0.40269768635623854,-0.28728302596247346,98.39463116028561
2.85,0.06792491095165469,0.12291945864951734,98.97864849026838
2.86,-0.3061472772178151,-0.18979517944733904,99.84355591884008
2.87,0.15380140551196098,0.19544664881053522,100.888701160673
2.88,-0.2920771170921152,-0.19497569303026888,101.8987351401823
2.89,0.14943480409364032,0.18696944476574093,102.72970168184118
2.9,-0.20086366524275032,-0.11208747570339128,103.23530385930121
2.91,0.22172631646361568,0.2547870771240953,103.34765989873678
2.92,-0.19795259763053655,-0.08194630576634489,103.01059178043009
2.93,0.21833007091603293,0.29010876064407154,102.31421841101174
2.94,-0.1727233449913505,-0.038618373981840697,101.46101473654791
2.95,0.19164528447074003,0.2284135534291797,100.60781106208408
2.96,-0.26296644096997746,-0.14740915922336753,99.82131878603514
2.97,0.17320852292671945,0.23265215545157686,99.11324166250891
2.98,-0.30517692134707713,-0.1850856216446755,98.42857204719843
2.99,-0.005336957289058583,0.05274704738983119,97.7661395646929
3.0,-0.31293976831298054,-0.18037606384201202,97.17041848060227
3.01,0.07132115649923743,0.13045475113377894,96.63204579164018
3.02,-0.3469022237888079,-0.032966904618644495,96.12644361418013
3.03,0.13633499983867836,0.39277712074213583,95.68755283513495
3.04,-0.07326186824071328,-0.22323303984624987,95.29547707252127
3.05,0.4507303019577658,-0.5957590620369326,94.95840895421456
3.06,-0.08490613868956837,-0.9108284790351208,94.71145974253848
3.07,0.17126781118524362,0.15918305373002628,94.5089847964723
3.08,-0.2867401598030566,-0.0216639658922521,94.32874698321109
3.09,0.17320852292671945,0.2929344953256697,94.16021292405773
3.1,-0.3032362096056013,-0.13045475113377894,94.01508637312013
3.11,0.021833007091603296,0.12574519333111545,93.85708569266387
3.12,-0.2445296794259569,-0.06452094189648994,93.70025538761838
3.13,0.19310081827684691,0.30423743405206205,93.56566221537787
3.14,-0.23191505310636387,-0.04992131270823309,93.39712815622453
3.15,0.13876088951552315,0.24960656354116548,93.23912747576826
3.16,-0.18630832718168144,-0.008477204044794299,93.10453430352774
3.17,0.1892193947938952,0.28728302596247346,92.95940775259012
3.18,-0.13973124538626108,0.025902567914649247,92.80140707213387
3.19,0.16835674357302985,0.25525803290436166,92.61063588017556
3.2,-0.19746741969516757,-0.0433279317845042,92.3519829143916
3.21,0.13002768667888184,0.2124010569001238,92.08279656991056
3.22,-0.2726699996773567,-0.11773894506658748,91.85808449103943
3.23,0.059191708115013376,0.13516430893644243,91.70125418599396
3.24,-0.4943963161409724,-0.36922933172881833,91.70125418599396
3.25,-0.11498717068244402,-0.07488196906234965,92.21738974215108
3.26,-0.36776487500967325,-0.26656097163075404,94.22809469788339
3.27,0.0742322241114512,0.08430108466767663,100.67452246049895
3.28,-0.21444864743308126,-0.13940291095883958,111.36707221345026
3.29,0.15380140551196098,0.13893195517857324,121.23918880343979
3.3,-0.2290039854941501,-0.18131797540254474,128.87705873423664
3.31,0.14555338061068862,0.12527423755084907,133.80785033988286
3.32,-0.2809180245786291,-0.22040730516465176,136.08774164009623
3.33,0.11304645894096817,0.1262161491113818,136.9526490686679
3.34,-0.2915919391567462,-0.17613746181961487,136.8742339161452
3.35,0.0014555338061068863,0.06640476501755534,136.22233481233675
3.36,-0.35660578249618713,-0.18791135632627362,134.4141048026706
3.37,0.029595854057506688,0.14034482251937228,130.9661788424917
3.38,-0.3430208003058562,-0.15023489390496564,125.32731011331926
3.39,0.052399217019847906,0.16530547887348884,118.93706037042148
3.4,-0.36048720597913886,-0.17566650603934852,113.34383628226973
3.41,-0.0004851779353689621,0.11302938726392399,109.46872329715352
3.42,-0.3619427397852457,-0.17472459447881583,107.4697220955291
3.43,0.047547437666158286,0.15682827482869452,106.86346763274135
3.44,-0.2993547861226496,-0.11962276818765288,107.14435773133026
3.45,0.05870653017964441,0.16671834621428788,107.750612194118
3.46,-0.2712144658712498,-0.09136542137167189,108.55934160297191
3.47,0.09752076500916138,0.20580767597639493,109.26741872649814
3.48,-0.28722533773842557,-0.11302938726392399,109.30018923800017
3.49,0.10916503545801647,0.21381392424092288,108.01979853859905
3.5,-0.3114842345068737,-0.12527423755084907,105.69543297277578
3.51,-0.010673914578117167,0.10078453697699889,103.16859246088634
3.52,-0.4056087539684523,-0.21051723377905843,100.70846334741178
3.53,0.06938044475776158,0.18979517944733904,98.7316992785923
3.54,-0.2809180245786291,-0.08006248264527949,97.70996154497513
3.55,0.09121345184936487,0.21758157048305368,97.45130857919118
3.56,-0.39978661874402477,-0.19262091412893712,97.70996154497513
3.57,0.042695658312468666,0.16907312511561962,98.30451225365499
3.58,-0.40415322016234545,-0.20251098551453048,99.29347947577013
3.59,0.025229252639186028,0.14411246876150308,100.5059884013456
3.6,-0.3663093412035664,-0.17236981557748407,101.66348968261408
3.61,0.11110574719949232,0.22134921672518448,102.57287137679569
3.62,-0.3954200173257041,-0.21004627799879208,103.11241444116857
3.63,0.13148322048498873,0.23641980169370766,103.25754099210617
3.64,-0.3289506401801563,-0.1299837953535126,103.02229553453796
3.65,0.13342393222646456,0.2726833967742166,102.40433731764234
3.66,-0.3211877932142529,-0.08006248264527949,101.62954879570125
3.67,0.1625346083486023,0.3047083898323284,100.84305651965231
3.68,-0.332832063663108,-0.12150659130871828,100.07997175181909
3.69,0.05433992876132376,0.20722054331719397,99.33795374138005
3.7,-0.39978661874402477,-0.1733117271380168,98.61934323915673
3.71,0.11838341623002675,0.2675028831912868,97.9124364910413
3.72,-0.3672796970743043,-0.14835107078390022,97.20435936751508
3.73,0.09897629881526827,0.23123928811077782,96.54192688500956
3.74,-0.371646298492625,-0.16624739043402154,95.9462058009189
3.75,0.01843676154402056,0.3753517568722809,95.39612935784895
3.76,-0.4594635047944071,-0.046624622246368645,94.93617182140962
3.77,0.11547234861781298,-0.16295069997215708,94.55345906208221
3.78,-0.23094469723562597,-1.3313919908129712,94.23979845199126
3.79,0.033962455475827345,-0.5806884770684094,94.01508637312013
3.8,-0.43326389628448314,-0.19921429505266602,93.80090767294608
3.81,-0.016981227737913673,0.24960656354116548,93.62184023509565
3.82,-0.43326389628448314,-0.18791135632627362,93.41936528902947
3.83,0.004851779353689621,0.16342165575242343,93.19465321015835
3.84,-0.4381156756381728,-0.19497569303026888,92.98164488539508
3.85,0.057250996373537526,0.23453597857264227,92.80140707213387
3.86,-0.42064926996489016,-0.16247974419189073,92.61063588017556
3.87,0.0019407117414758483,0.17660841759988122,92.41986468821726
3.88,-0.44345263292723136,-0.19874333927239968,92.22909349625895
3.89,0.059191708115013376,0.23406502279237593,92.06055943710561
3.9,-0.4172530244173074,-0.16483452309322247,91.90255875664934
3.91,-0.007277669030534431,0.14505438032203577,91.75743220571174
3.92,-0.4124012450636178,-0.19497569303026888,91.59943152525547
3.93,-0.03493281134656527,0.12244850286925098,91.39812695460009
3.94,-0.5419437538071307,-0.29010876064407154,91.17341487572895
3.95,-0.07956918140050978,0.08712681934927474,90.9592361755549
3.96,-0.4264714051893177,-0.19026613522760538,90.79070211640156
3.97,-0.06695455508091677,0.07158527860048519,90.82464300331439
3.98,-0.5147737894264688,-0.31459846121792173,91.35248231357939
3.99,-0.064043487468703,0.0395602855423734,93.29530549548603
4.0,-0.4977925616885551,-0.3301400019667113,99.46201353492347
4.01,0.04900297147226517,0.1459962918825685,110.10891864685408
4.02,-0.3134249462483495,-0.16342165575242343,120.08285789758209
4.03,-0.024258896768448106,0.0414441086634388,127.753498339881
4.04,-0.4284121169307935,-0.31177272653632365,132.75217171935287
4.05,0.019407117414758483,0.08524299622820934,135.11047817208896
4.06,-0.3478725796595458,-0.18602753320520823,135.907503826835
4.07,-0.012129448384224053,0.11350034304419034,135.69449550207173
4.08,-0.39639037319644205,-0.19733047193160064,134.93024035882775
4.09,-0.019892295350127445,0.13328048581537702,132.83058687187562
4.1,-0.42550104931857974,-0.1850856216446755,128.9437701326515
4.11,-0.11498717068244402,0.04803748958716769,122.85664762114762
4.12,-0.4774150884030587,-0.24395509417796926,116.20774491246587
4.13,-0.052399217019847906,0.12103563552845194,110.57004655870422
4.14,-0.4177382023526764,-0.20392385285532952,106.76281534741365
4.15,-0.166416031831554,-0.024489700573850196,104.76264377037843
4.16,-0.435204608025959,-0.22888450920944606,104.20203394861139
4.17,-0.08393578281883045,0.0631080745556909,104.44898316028748
4.18,-0.3750425440402077,-0.19073709100787173,105.02129673616238
4.19,-0.06452866540407196,0.05180513582929849,105.7399072383857
4.2,-0.3469022237888079,-0.16342165575242343,106.32392456836848
4.21,-0.02086265122086537,0.10078453697699889,106.25721316995362
4.22,-0.30226585373486337,-0.13186761847457798,104.95458533774752
4.23,0.05142886114910998,0.16766025777482058,102.763642568754
4.24,-0.3114842345068737,-0.12056467974818559,100.5059884013456
4.25,-0.09121345184936487,0.030141169937046398,98.71999552448443
4.26,-0.45849314892366916,-0.2642061927294223,97.61984263834452
4.27,-0.22221149439898463,-0.10502313899939604,97.1037070821874
4.28,-0.4284121169307935,-0.24960656354116548,96.97964728864396
4.29,-0.24404450149058793,-0.11020365258232588,97.22659650032004
4.3,-0.46528564001883466,-0.2849282470611417,97.84455471721564
4.31,-0.29353265089822206,-0.19073709100787173,98.83235156392
4.32,-0.47692991046768973,-0.3395591175720383,100.01208997799343
4.33,-0.19552670795369173,-0.10926174102179319,101.12394661824122
4.34,-0.5996799281160371,-0.44269843345036897,102.01109117961786
4.35,-0.2455000352966948,-0.13940291095883958,102.49445622427295
4.36,-0.4449081667333382,-0.2821025123795436,102.51669335707791
4.37,-0.2906215832860083,-0.1375190878377742,102.06726919933566
4.38,-0.5016739851715069,-0.26891575053208583,101.29248067739456
4.39,-0.40415322016234545,-0.22182017250545083,100.43927700293074
4.4,-0.49973327343003093,-0.30141169937046397,99.57436957435904
4.41,-0.3173063697313012,-0.15871209794975993,98.77617354420221
4.42,-0.5400030420656549,-0.3240175768232488,98.04702966328182
4.43,-0.33186170779237006,-0.16342165575242343,97.36118967256056
4.44,-0.47401884285547596,-0.25808376758595974,96.74440183107573
4.45,-0.524962526069217,-0.37770653577361263,96.13697699287721
4.46,-0.6549902127480989,-0.4577690184188921,95.62084143672008
4.47,-0.4002717966793937,-0.08241726154661123,95.15971352486996
4.48,-0.5618360491572582,-0.13186761847457798,94.75593400814839
4.49,-0.30129549786412546,-0.32213375370218333,94.40716213573383
4.5,-0.36776487500967325,-1.2508585523874254,94.1274424125557
4.51,-0.18291208163409872,-1.203292018580524,93.92496746648952
4.52,-0.39639037319644205,-0.44364034501090166,93.77867054014112
4.53,-0.3401097326936424,-0.053688958950363894,93.61013648098778
4.54,-0.5283587716167997,-0.23877458059503942,93.43106904313734
4.55,-0.3779536116524215,-0.19874333927239968,93.262534983984
4.56,-0.58900601353792,-0.3518039678589634,93.09400092483065
4.57,-0.44636370053944513,-0.2533742097832963,92.94770399848225
4.58,-0.5302994833582756,-0.29999883202966493,92.84705171315457
4.59,-0.4109457112575109,-0.236890757473974,92.76746618522104
4.6,-0.5516473125145099,-0.32684331150484686,92.66681389989334
4.61,-0.4594635047944071,-0.28916684908353885,92.52051697354496
4.62,-0.4701374193725243,-0.255728988684628,92.32974578158665
4.63,-0.3095435227653978,-0.17613746181961487,92.13897458962835
4.64,-0.4458785226040762,-0.255728988684628,91.93649964356217
4.65,-0.48614829123970005,-0.3631069065853558,91.7234913187989
4.66,-0.4614042165358829,-0.2943473626664687,91.51048299403566
4.67,-0.3095435227653978,-0.19497569303026888,91.29630429386161
4.68,-0.3959051952610731,-0.2444260499582356,91.09499972320621
4.69,-0.24792592497353963,-0.169544080895886,90.94870279685783
4.7,-0.2062006225318089,-0.10549409477966239,91.03882170348844
4.71,-0.07859882552977186,-0.04897940114770039,91.79137309262457
4.72,-0.18776386098778833,-0.1384609993983069,94.43056964394957
4.73,-0.09849112087989931,-0.10784887368099413,101.79808285485461
4.74,-0.15380140551196098,-0.12904188379297987,112.46839547500096
4.75,-0.0320217437343515,-0.05886947253329374,121.73425760220275
4.76,-0.17951583608651597,-0.16766025777482058,128.74246556199614
4.77,-0.021347829156234333,-0.038618373981840697,133.11147697046454
4.78,-0.0921838077201028,-0.040973152883172444,135.1327153048939
4.79,0.07617293585292705,0.10266836009806429,135.72843638898456
4.8,0.03978459070025489,0.14929298234443292,135.44754629039565
4.81,0.04657708179542036,0.11491321038498939,134.47028282238838
4.82,0.0014555338061068863,0.12480328177058274,132.0218574630217
4.83,0.1038280781689579,0.19073709100787173,127.57443090203057
4.84,0.05579546256743064,0.18037606384201202,121.20641829193774
4.85,0.12177966177760949,0.19685951615133426,114.68040500138865
4.86,0.020377473285496408,0.12904188379297987,109.41254527743574
4.87,0.13487946603257148,0.18602753320520823,106.04303446977956
4.88,0.10334290023358893,0.20580767597639493,104.41504227337465
4.89,0.13876088951552315,0.18414371008414282,103.97732186974027
4.9,0.1741788787974574,0.25714185602542705,104.29098247983121
4.91,0.21202275775623644,0.24725178463983372,104.8305255442041
4.92,0.230459519300257,0.30517934561259474,105.41454287418686
4.93,0.19504153001832275,0.22605877452784798,105.7399072383857
4.94,0.23725201039542246,0.30753412451392653,105.21206792812069
4.95,0.19261564034147796,0.21004627799879208,103.59460911041286
4.96,0.166416031831554,0.22982642076997878,101.5171927562657
4.97,0.1266314411312991,0.15400254014709644,99.66448848098965
4.98,0.14118677919236797,0.2124010569001238,98.39463116028561
4.99,0.09800594294453034,0.13280953003511067,97.72049492367222
5.0,0.11886859416539572,0.20298194129479682,97.63154639245239
5.01,0.08733202836641318,0.13563526471670878,97.94520700254334
5.02,0.09703558707379242,0.17519555025908218,98.70946214578734
5.03,0.00679249109516547,0.04803748958716769,99.88920055986078
5.04,0.03250692166972046,0.11773894506658748,101.2702435445896
5.05,0.005822135224427545,0.033908816179177195,102.65128652931843
5.06,0.05773617430890649,0.10690696212046144,103.73037265806417
5.07,-0.04900297147226517,-0.023076833233051146,104.29098247983121
5.08,0.022803362962341218,0.09277828871247094,104.28044910113412
5.09,-0.10334290023358893,-0.08006248264527949,103.67419463834639
5.1,0.07229151236997536,0.15494445170762913,102.68522741623126
5.11,0.008733202836641318,0.0649918976767563,101.59560790878844
5.12,0.13584982190330938,0.2599675907070252,100.59610730797621
5.13,-0.06064724192112026,-0.011773894506658748,99.7429036335124
5.14,0.10479843403969581,0.17943415228147933,99.01258937718121
5.15,-0.07908400346514083,-0.031083081497579094,98.32791976187075
5.16,0.020377473285496408,0.10125549275726524,97.66431690395443
5.17,-0.1329387542910956,-0.09183637715193824,97.04752906246961
5.18,0.09363934152620969,0.16012496529055897,96.51968975220461
5.19,-0.06938044475776158,-0.04709557802663499,96.0480284616574
5.2,0.18242690369872974,0.291992583765137,95.65478232363292
5.21,-0.05579546256743064,0.18649848898547458,95.31771420532621
5.22,0.06307313159796507,0.21946539360411907,95.01458697393235
5.23,-0.007277669030534431,-0.6437965516241003,94.74423025404052
5.24,0.294017828833591,-0.9145961252772515,94.55345906208221
5.25,-0.061617597791858186,-0.519464225633784,94.3626878701239
5.26,0.1625346083486023,0.31365654965738904,94.20585756507843
5.27,-0.14991998202900927,-0.017896319650121298,94.07126439283792
5.28,0.26830339825903604,0.3466234542760336,93.93550084518661
5.29,-0.029110676122137726,0.03249594883837815,93.77867054014112
5.3,0.25180734845649133,0.3612230834642904,93.61013648098778
5.31,0.014555338061068863,0.0828882173268776,93.4533061759423
5.32,0.28625498186768766,0.3838289609170752,93.29530549548603
5.33,-0.012129448384224053,0.05321800317009754,93.15017894454843
5.34,0.30808798895929096,0.4036091036882619,92.98164488539508
5.35,0.07908400346514083,0.13280953003511067,92.80140707213387
5.36,0.23337058691247076,0.30235361093099666,92.62233963428343
5.37,-0.1329387542910956,-0.09795880229540078,92.41986468821726
5.38,0.23142987517099492,0.302824566711263,92.22909349625895
5.39,-0.3105138786361357,-0.26467714850968865,92.00438141738782
5.4,0.16593085389618503,0.24678082885956737,91.75743220571174
5.41,-0.2445296794259569,-0.21145914533959112,91.5327201268406
5.42,0.25762948368091887,0.3131855938771227,91.37471944638435
5.43,-0.18824903892315728,-0.17755032916041394,91.5327201268406
5.44,0.2328854089771018,0.25714185602542705,92.5989321260677
5.45,-0.2202707826575088,-0.23830362481477307,96.27157016511774
5.46,0.21978560472213984,0.21946539360411907,105.22377168222856
5.47,-0.14652373648142655,-0.18225988696307743,115.904617681072
5.48,0.24744074703817068,0.23359406701210958,124.60869961109596
5.49,-0.26927375412977395,-0.3263723557245805,130.88776368996895
5.5,0.31002870070076677,0.2896378048638052,134.35792678295283
5.51,-0.2382223662661604,-0.2759800872360811,135.8630295612251
5.52,0.3192470814727771,0.33108191352724403,136.20009767953178
5.53,-0.19213046240610898,-0.17990510806174567,135.87356293992218
5.54,0.23725201039542246,0.3131855938771227,134.69499490125952
5.55,-0.268788576194405,-0.19780142771186698,132.23486578778497
5.56,0.2624812630346085,0.3631069065853558,127.87755813342444
5.57,-0.30032514199338756,-0.22417495140678256,122.05962196640156
5.58,0.1804861919572539,0.28916684908353885,116.22998204527083
5.59,-0.47062259730789324,-0.387596607159206,111.55784340540856
5.6,0.17708994640967116,0.2929344953256697,108.59328248988474
5.61,-0.3959051952610731,-0.30612125717312744,107.3234251691807
5.62,0.25520359400407405,0.37064219906961743,107.16659486413522
5.63,-0.39736072906717995,-0.30235361093099666,107.68273042029234
5.64,0.21056722395012956,0.3263723557245805,108.36857041101361
5.65,-0.3570909604315561,-0.26891575053208583,109.15506268706257
5.66,0.36436862946209053,0.4827296747730087,109.49096042995848
5.67,-0.34253562237048724,-0.2359488459134413,108.77234992773518
5.68,0.2721848217419877,0.3979576343250657,106.85176387863348
5.69,-0.4133716009343557,-0.29764405312833314,104.33662712085192
5.7,0.20814133427328474,0.35039110051816436,101.96661691400796
5.71,-0.5142886114910998,-0.3904223418408041,100.18062403714679
5.72,0.1867935051170504,0.33861720601150563,99.32742036268296
5.73,-0.43132318454300733,-0.293405451105936,99.27124234296518
5.74,0.2547184160687051,0.40643483836986,99.39413176109782
5.75,-0.4672263517603105,-0.3306109577469777,99.7429036335124
5.76,0.1867935051170504,0.34473963115496814,100.32692096349517
5.77,-0.5011888072361379,-0.35981021612349134,101.14618375104617
5.78,0.19552670795369173,0.3414429406931037,102.0895063321406
5.79,-0.5094368321374102,-0.38806756293947237,102.98835464762513
5.8,0.24841110290890858,0.38806756293947237,103.70696514984843
5.81,-0.45509690337608644,-0.32024993058111795,104.07797415506795
5.82,0.32312850495572876,0.4459951239122334,104.07797415506795
5.83,-0.4085198215806661,-0.2773929545768801,103.67419463834639
5.84,0.29886960818728064,0.4653043109031537,102.96611751482017
5.85,-0.4085198215806661,-0.2284135534291797,102.1351509731613
5.86,0.3546650707547113,0.5222899603153821,101.31471781019953
5.87,-0.5535880242559857,-0.40502197102906096,100.51769215545347
5.88,0.2789773128371532,0.44740799125303243,99.833022540143
5.89,-0.499248095494662,-0.33814625023123923,99.21506432324739
5.9,0.26684786445292913,0.4375179198674391,98.59710610635179
5.91,-0.5186552129094205,-0.3555716141010942,98.013088776369
5.92,0.31682119179593227,0.4879101883559385,97.42907144638622
5.93,-0.435204608025959,-0.26656097163075404,96.9117655148183
5.94,0.20134884317811927,0.6032943545211943,96.46351173248682
5.95,-0.6229684690137474,-0.21758157048305368,96.07026559446234
5.96,0.37116112055725603,0.17284077135775042,95.74373085485273
5.97,-0.3163360138605633,-1.4189897659425124,95.46401113167461
5.98,0.3376838430167976,-0.30235361093099666,95.21589154458773
5.99,-0.6195722234661646,-0.45965284153995756,95.01458697393235
6.0,0.16447532009007815,0.4695429129255509,94.85658629347608
6.01,-0.6108390206295233,-0.39089329762107045,94.69975598843061
6.02,0.09994665468600619,0.32213375370218333,94.54292568338514
6.03,-0.7452333087267258,-0.5095741542481906,94.38492500292887
6.04,0.09946147675063723,0.3263723557245805,94.19415381097056
6.05,-0.7103004973801605,-0.47331055916768167,94.00338261901226
6.06,-0.008248024901272355,0.21381392424092288,93.84655231396678
6.07,-0.7301927927302879,-0.5034517291047281,93.71078876631547
6.08,0.08393578281883045,0.29858596468886583,93.52001757435717
6.09,-0.6545050348127298,-0.4483499028135651,93.29530549548603
6.1,-0.03735870102341008,0.1657764346537552,93.08229717072278
6.11,-0.7195188781521707,-0.5171094467324522,92.8798222246566
6.12,-0.03929941276488593,0.13987386673910593,92.67851765400121
6.13,-0.7597886467877947,-0.5679726710012181,92.48657608663213
6.14,-0.021347829156234333,0.14411246876150308,92.28527151597673
6.15,-0.72922243685955,-0.5580825996156247,92.11673745682339
6.16,0.064043487468703,0.20345289707506317,92.15067834373622
6.17,-0.6899230240946641,-0.5538439975932276,92.79087369343678
6.18,0.12372037351908534,0.2444260499582356,95.2275952986956
6.19,-0.6884674902885572,-0.5717403172433488,102.26974414540183
6.2,0.12323519558371637,0.20392385285532952,112.96229389835314
6.21,-0.6511087892651471,-0.5594954669564237,122.51957950284091
6.22,0.057250996373537526,0.10502313899939604,129.82038131533108
6.23,-0.6753676860335952,-0.5877528137724047,134.32398589604
6.24,0.0742322241114512,0.15871209794975993,136.35692798457725
6.25,-0.7088449635740536,-0.5948171504763999,136.99712333427783
6.26,0.10867985752264751,0.21899443782385272,136.78411500951458
6.27,-0.6433459422992437,-0.4921487903783357,135.88526669403004
6.28,0.06452866540407196,0.22370399562651622,133.56090112820678
6.29,-0.6370386291394472,-0.4478789470332988,129.5277874626343
6.3,0.06938044475776158,0.24395509417796926,123.62090276439162
6.31,-0.7146670987984811,-0.519464225633784,117.43195759214922
6.32,0.05822135224427545,0.22700068608838067,112.27645390763186
6.33,-0.6428607643638747,-0.4516465932754296,108.87417258847366
6.34,0.14797927028753344,0.31365654965738904,107.222772883853
6.35,-0.6423755864285058,-0.453530416396495,106.82952674582852
6.36,0.12177966177760949,0.2821025123795436,107.222772883853
6.37,-0.6234536469491163,-0.43610505252664006,107.88520536635852
6.38,0.0781136475944029,0.23123928811077782,108.69393477521244
6.39,-0.6928340917068778,-0.5119289331495224,109.2440112182824
6.4,-0.00679249109516547,0.1535315843668301,108.93035060819143
6.41,-0.7505702660157844,-0.5496053955708303,107.29065465767866
6.42,-0.052399217019847906,0.12339041442978368,104.35886425365688
6.43,-0.7869586111684566,-0.5858689906513393,101.49495562346074
6.44,0.0664693771455478,0.22935546498971243,99.47254691362056
6.45,-0.6976858710605675,-0.4897940114770039,98.20385996832731
6.46,0.1062539678458027,0.29010876064407154,97.59760550553956
6.47,-0.7825920097501359,-0.5529020860326949,97.51919035301682
6.48,0.166416031831554,0.3475653658365663,97.8223175844107
6.49,-0.7699773834305429,-0.5552568649340266,98.42857204719843
6.5,0.0460919038600514,0.21193010111985747,99.34965749548792
6.51,-0.8286839136101872,-0.6263711877542454,100.41703987012578
6.52,0.06452866540407196,0.22182017250545083,101.43877760374296
6.53,-0.6865267785470813,-0.4973293039612655,102.21356612568404
6.54,0.22463738407582945,0.37393888953148186,102.68522741623126
6.55,-0.6821601771287608,-0.5218190045351158,102.79758345566682
6.56,0.1256610852605612,0.265148104289955,102.55063424399074
6.57,-0.6865267785470813,-0.473781514947948,101.944379781203
6.58,0.09169862978473384,0.27032861787288487,101.20236177076396
6.59,-0.6768232198397022,-0.46577526668342006,100.38309898321296
6.6,0.030566209928244614,0.19073709100787173,99.596606707164
6.61,-0.6438311202346128,-0.44364034501090166,98.86629245083283
6.62,0.07859882552977186,0.23265215545157686,98.20385996832731
6.63,-0.6127797323709991,-0.4139701308541216,97.54142748582179
6.64,0.06501384333944092,0.20392385285532952,96.92346926892617
6.65,-0.7200040560875397,-0.5345348106023072,96.33945193894338
6.66,-0.0038814234829516966,0.14788011500363388,95.82331638278626
6.67,-0.7864734332330876,-0.3697002875090847,95.38442560374108
6.68,-0.09121345184936487,0.28398633550060903,95.01458697393235
6.69,-0.6928340917068778,-0.8425398908965,94.68805223432274
6.7,0.03250692166972046,-1.0907335870968664,94.39662875703674
6.71,-0.844694785477363,-1.6036044318069216,94.1719166781656
6.72,-0.2624812630346085,-0.19120804678813808,94.00338261901226
6.73,-0.9252343227486107,-0.5877528137724047,93.82314480575104
6.74,-0.1140168148117061,0.08948159825060649,93.6440773679006
6.75,-0.9097086288168039,-0.6814730140454084,93.47554330874726
6.76,-0.19746741969516757,-0.026373523694915597,93.35148351520382
6.77,-0.8087916182600599,-0.5821013444092086,93.22859409707117
6.78,-0.033477277540458386,0.14788011500363388,93.08229717072278
6.79,-0.8010287712941564,-0.5769208308262787,92.89152597876448
6.8,-0.064043487468703,0.08853968669007378,92.72299191961113
6.81,-0.8218914225150218,-0.6291969224358435,92.57669499326273
6.82,-0.031051387863613573,0.1045521832191297,92.40816093410939
6.83,-0.7466888425328326,-0.5679726710012181,92.206856363454
6.84,0.0029110676122137726,0.1262161491113818,91.970440530475
6.85,-0.7379556396961914,-0.5576116438353583,91.75743220571174
6.86,-0.03978459070025489,0.10361027165859699,91.55495725964556
6.87,-0.8223766004503907,-0.6329645686779743,91.34194893488231
6.88,-0.15574211725343684,-0.028728302596247347,91.12777023470825
6.89,-0.8267432018687114,-0.6579252250320908,91.03882170348844
6.9,-0.16107907454249543,-0.0395602855423734,91.22959289544674
6.91,-0.8553687000554802,-0.720091388027249,92.28527151597673
6.92,-0.15962354073638854,-0.09277828871247094,95.74373085485273
6.93,-0.8403281840590423,-0.7379877076773703,104.38110138646182
6.94,-0.06113241985648923,-0.035792639300242596,115.0397102525003
6.95,-0.8519724545078975,-0.7690707891749494,123.78943682354496
6.96,-0.05870653017964441,-0.0433279317845042,130.2019236992477
6.97,-0.7825920097501359,-0.6894792623099363,133.78561320707792
6.98,-0.13973124538626108,-0.08241726154661123,135.30124936404727
6.99,-0.8102471520661667,-0.6739377215611467,135.616080349549
7.0,-0.09897629881526827,-0.004238602022397149,135.2228342115245
7.01,-0.8034546609710013,-0.6357903033595724,133.71773143325225
7.02,-0.016981227737913673,0.08712681934927474,130.69699249801064
7.03,-0.703022828349626,-0.5147546678311204,125.49584417247262
7.04,0.0014555338061068863,0.10549409477966239,118.93706037042148
7.05,-0.7442629528559879,-0.5811594328486758,112.79375983919978
7.06,-0.0422104803770997,0.055572782071429294,108.1321545780346
7.07,-0.6064724192112027,-0.4610657088807566,105.38060198727405
7.08,-0.009703558707379241,0.08524299622820934,104.26874534702625
7.09,-0.6501384333944092,-0.5034517291047281,104.20203394861139
7.1,0.005822135224427545,0.07488196906234965,104.6842286178557
7.11,-0.6389793408809231,-0.49827121552179826,105.29048308064343
7.12,0.0019407117414758483,0.08948159825060649,105.88620416473408
7.13,-0.6253943586905921,-0.4789620285308779,105.98685645006178
7.14,0.1484644482229024,0.22605877452784798,104.97682247055248
7.15,-0.5870653017964441,-0.44646607969249974,103.03399928864583
7.16,0.17320852292671945,0.25525803290436166,100.92147167217504
7.17,-0.5700840740585305,-0.4375179198674391,99.21506432324739
7.18,0.049973327343003096,0.13893195517857324,98.15938570271739
7.19,-0.6967155151898295,-0.5439539262076342,97.73219867778009
7.2,0.05433992876132376,0.12480328177058274,97.70996154497513
7.21,-0.6215129352076404,-0.48084585165194327,98.09150392889174
7.22,0.05773617430890649,0.1337514415956434,98.86629245083283
7.23,-0.5710544299292684,-0.4262149811410467,100.04603086490626
7.24,0.1421571350631059,0.20580767597639493,101.3708958299173
7.25,-0.5589249815450443,-0.43139549472397654,102.66299028342631
7.26,0.15331622757659202,0.2091043664382594,103.66249088423852
7.27,-0.58900601353792,-0.45023372593463057,104.19033019450352
7.28,0.09315416359084072,0.15117680546549833,104.17862644039565
7.29,-0.5171996791033135,-0.3885385187197387,103.60631286452075
7.3,0.13487946603257148,0.21475583580145557,102.62904939651348
7.31,-0.4745040207908449,-0.31177272653632365,101.59560790878844
7.32,0.17514923466819532,0.28163155659927724,100.61834444078117
7.33,-0.43714531976743487,-0.293405451105936,99.76514076631734
7.34,0.23967790007226727,0.3244885326035151,99.02429313128908
7.35,-0.38086467926463524,-0.23029737655024513,98.30451225365499
7.36,0.07132115649923743,0.14411246876150308,97.72049492367222
7.37,-0.5269032378106928,-0.38995138606053775,97.1481813477973
7.38,0.15428658344732996,0.22888450920944606,96.60863828342443
7.39,-0.4982777396239241,-0.35462970254056153,96.12644361418013
7.4,0.17757512434504014,0.3678164643880193,95.76713836306848
7.41,-0.4031828642916075,-0.06593380923728899,95.4745445103717
7.42,0.3648538073974595,0.3080050802941929,95.21589154458773
7.43,-0.21008204601476058,-1.063418151841418,94.98064608701952
7.44,0.4570376151175623,-0.6635766943952871,94.76763776225626
7.45,-0.3697055867511491,-0.5171094467324522,94.63187421460495
7.46,0.23579647658931557,0.4215054233383832,94.49728104236443
7.47,-0.33089135192163216,-0.11820990084685383,94.39662875703674
7.48,0.3881423482951697,0.473781514947948,94.29597647170904
7.49,-0.3299209960508942,-0.15588636326816183,94.20585756507843
7.5,0.31196941244224263,0.4045510152487946,94.081797771535
7.51,-0.23191505310636387,-0.06216616299515819,93.93550084518661
7.52,0.3803795013292663,0.47660724962954615,93.7447296532283
7.53,-0.2775217790310463,-0.11915181240738654,93.55395846127
7.54,0.4187085582234143,0.4930907019388684,93.38542440211666
7.55,-0.09315416359084072,0.046624622246368645,93.20635696426622
7.56,0.5099220100727792,0.5703274499025498,93.04835628380995
7.57,-0.1227500176483474,0.0037676462421307997,92.84705171315457
7.58,0.4832372236274862,0.5453667935484332,92.63287301298053
7.59,-0.13973124538626108,-0.013657717627724148,92.40816093410939
7.6,0.49245560439949654,0.5481925282300313,92.17291547654118
7.61,-0.1625346083486023,-0.05981138409382644,91.970440530475
7.62,0.41919373615878325,0.43375027362530827,91.8697882451473
7.63,-0.17611959053893325,-0.09277828871247094,92.16121172243331
7.64,0.3726166543633629,0.3574554372221596,93.56566221537787
7.65,-0.23579647658931557,-0.18461466586440917,98.24833423393721
7.66,0.37989432339389734,0.35604256988136057,107.80679021383578
7.67,-0.25665912781018096,-0.23453597857264227,117.93755976960927
7.68,0.36242791772061467,0.293405451105936,126.03538723684548
7.69,-0.25957019542239473,-0.24678082885956737,131.684789344715
7.7,0.33186170779237006,0.27974773347821186,134.64935026023883
7.71,-0.32458403876183567,-0.27409626411501564,135.91920758094287
7.72,0.3192470814727771,0.3207208863613843,136.1544530385111
7.73,-0.34059491062901137,-0.23076833233051147,135.84079242842014
7.74,0.3410800885643804,0.39654476698426666,134.45857906828053
7.75,-0.3784387895877904,-0.23076833233051147,131.8755605366733
7.76,0.29886960818728064,0.3838289609170752,127.42813397568217
7.77,-0.3255543946325736,-0.16624739043402154,121.85714702033539
7.78,0.332346885727739,0.4111443961725235,116.45469412414195
7.79,-0.3750425440402077,-0.22558781874758163,112.15356448949922
7.8,0.1819417257633608,0.24725178463983372,109.52490131687131
7.81,-0.4851779353689621,-0.34285580803390275,108.4247484307314
7.82,0.18388243750483663,0.24913560776089913,108.34633327820865
7.83,-0.4914852485287586,-0.34285580803390275,108.89640972127862
7.84,0.23094469723562597,0.2971730973480668,109.61502022350192
7.85,-0.3944496614549662,-0.2444260499582356,110.28915646011531
7.86,0.27169964380661876,0.3555716141010942,110.43545338646369
7.87,-0.3032362096056013,-0.14175768986017134,109.41254527743574
7.88,0.41676784648193843,0.4996840828625973,107.17829861824309
7.89,-0.2459852132320638,-0.08524299622820934,104.5379316915073
7.9,0.3469022237888079,0.453530416396495,102.22526987979191
7.91,-0.4390860315089107,-0.25949663492675884,100.5621664210634
7.92,0.28043284664326007,0.39183520918160314,99.85525967294795
7.93,-0.4230751596417349,-0.22511686296731528,99.91143769266574
7.94,0.22754845168804322,0.3527458794194961,100.2145649240596
7.95,-0.43568978596132796,-0.24207127105690388,100.78687849993452
7.96,0.20911169014402267,0.3230756652627161,101.61784504159338
7.97,-0.47935580014453455,-0.2835153797203427,102.51669335707791
7.98,0.18000101402188493,0.29576023000726775,103.40383791845457
7.99,-0.4623745724066209,-0.26561906007022135,104.19033019450352
8.0,0.29983996405801855,0.4045510152487946,104.75211039168134
8.01,-0.40949017745140404,-0.2284135534291797,104.98735584924957
8.02,0.36679451913893535,0.47943298431114423,104.85276267700904
8.03,-0.33962455475827347,-0.16059592107082532,104.35886425365688
8.04,0.28916604947990143,0.4130282192935889,103.59460911041286
8.05,-0.49488149407634136,-0.2736253083347493,102.71916830314409
8.06,0.23725201039542246,0.4120863077330562,101.85426087457239
8.07,-0.46383010621272774,-0.2444260499582356,101.00105720010856
8.08,0.3401097326936424,0.47001386870581724,100.24850581097243
8.09,-0.4012421525501317,-0.17284077135775042,99.57436957435904
8.1,0.2775217790310463,0.42668593692131307,98.96811511157131
8.11,-0.4284121169307935,-0.21004627799879208,98.37239402748065
8.12,0.24841110290890858,0.3894804302802714,97.83285096310777
8.13,-0.38717199242443173,-0.16766025777482058,97.35065629386348
8.14,0.1649604980254471,0.3400300733523047,96.87899500331626
8.15,-0.44733405641018303,-0.006122425143462549,96.49628224398887
8.16,0.1853379713109435,0.44269843345036897,96.193155012595
8.17,-0.2983844302519117,-0.7059627146192585,95.9462058009189
8.18,0.4905148926580207,-0.6494480209872966,95.72149372204778
8.19,-0.42550104931857974,-0.7069046261797912,95.52018915139239
8.2,0.21056722395012956,0.4394017429885045,95.3282475840233
8.21,-0.5201107467155274,-0.17990510806174567,95.1269430133679
8.22,0.27606624522493944,0.45400137217676134,94.92446806730173
8.23,-0.5235069922631101,-0.24630987307930102,94.77817114095335
8.24,0.21396346949771228,0.40690579415012634,94.63187421460495
8.25,-0.49342596027023444,-0.22182017250545083,94.47504390955947
8.26,0.15671247312417474,0.3508620562984307,94.318213604514
8.27,-0.5991947501806681,-0.33249478086804307,94.14967954536066
8.28,0.014555338061068863,0.2010981181737314,93.96944173209943
8.29,-0.6438311202346128,-0.38524182825787423,93.790374294249
8.3,0.11741306035928882,0.29670214156780045,93.61013648098778
8.31,-0.5487362449022961,-0.30423743405206205,93.41936528902947
8.32,0.10770950165190958,0.27315435255448295,93.20635696426622
8.33,-0.627820248367437,-0.3861837398184069,92.96994113128721
8.34,0.020377473285496408,0.18696944476574093,92.72299191961113
8.35,-0.704963540091102,-0.4620076204412893,92.52051697354496
8.36,-0.016981227737913673,0.13045475113377894,92.44210182102222
8.37,-0.6734269742921194,-0.46813004558475185,92.74522905241608
8.38,-0.09121345184936487,0.026373523694915597,94.05956063873005
8.39,-0.8233469563211286,-0.6494480209872966,98.41686829309056
8.4,-0.16204943041323333,-0.08194630576634489,108.03150229270692
8.41,-0.780166120073291,-0.6381450822609042,118.48763621267922
8.42,-0.1727233449913505,-0.10408122743886333,126.84411664569939
8.43,-0.8723499277933938,-0.7342200614352395,132.71823083244004
8.44,-0.1649604980254471,-0.08995255403087284,135.7623772758974
8.45,-0.8340208708992458,-0.6550994903504928,137.04159759988775
8.46,-0.16447532009007815,-0.038618373981840697,137.28971718697463
8.47,-0.7825920097501359,-0.5477215724497649,136.963182447365
8.48,-0.23628165452468455,-0.05415991473063024,135.66055461515893
8.49,-0.7879289670391945,-0.5072193753468589,133.1676549901823
8.5,-0.21687453710992605,-0.0032966904618644496,128.91099962114947
8.51,-0.9315416359084072,-0.6456803747451658,123.55302099056595
8.52,-0.20959686807939162,0.009419115605326999,118.35304304043869
8.53,-0.7331038603425017,-0.4394017429885045,114.2766254846671
8.54,-0.17029745531450569,0.05180513582929849,111.71584408586483
8.55,-0.8699240381165491,-0.5849270790908067,110.71517310964182
8.56,-0.17611959053893325,0.04709557802663499,110.7268768637497
8.57,-0.7195188781521707,-0.4384598314279718,111.27695330681965
8.58,-0.06549902127480989,0.14364151298123673,111.98503043034587
8.59,-0.7884141449745634,-0.5152256236113868,112.6474629128514
8.6,-0.07956918140050978,0.12857092801271353,112.70364093256917
8.61,-0.6549902127480989,-0.37959035889467807,111.6362585579313
8.62,-0.02571443057455499,0.18131797540254474,109.48042705126139
8.63,-0.5836690562488615,-0.30894699185472557,106.82952674582852
8.64,0.008733202836641318,0.21758157048305368,104.26874534702625
8.65,-0.5996799281160371,-0.3263723557245805,102.15738810596626
8.66,-0.09946147675063723,0.11114556414285859,100.70846334741178
8.67,-0.6074427750819406,-0.3348495597693748,99.96761571238352
8.68,-0.04026976863562386,0.16860216933535327,99.77684452042521
8.69,-0.5729951416707443,-0.2896378048638052,100.04603086490626
8.7,-0.04172530244173074,0.17896319650121298,100.69675959330391
8.71,-0.5429141096778686,-0.2533742097832963,101.76414196794178
8.72,0.0,0.23171024389104417,103.03399928864583
8.73,-0.4953666720117103,-0.20816245487772667,104.16809306169857
8.74,0.01649604980254471,0.21899443782385272,104.95458533774752
8.75,-0.627820248367437,-0.3668745528274866,105.32442396755626
8.76,-0.05385475082595479,0.1384609993983069,105.25771256914139
8.77,-0.4788706222091656,-0.21993634938438542,104.78605127859417
8.78,-0.1460385585460576,0.057456605192494695,104.03349988945804
8.79,-0.6433459422992437,-0.3621649950248231,103.21306672649627
8.8,-0.07132115649923743,0.169544080895886,102.48275247016508
8.81,-0.550676956643772,-0.23029737655024513,101.76414196794178
8.82,-0.05191403908447895,0.17048599245641868,101.04553146571848
8.83,-0.4885741809165448,-0.20674958753692763,100.34915809630013
8.84,-0.08927274010788902,0.12904188379297987,99.61884383996896
8.85,-0.627820248367437,-0.3574554372221596,98.88852958363778
8.86,-0.048032615601527245,0.16389261153268977,98.23780085524012
8.87,-0.46188939447125194,-0.18649848898547458,97.66431690395443
8.88,-0.01843676154402056,0.18367275430387647,97.1481813477973
8.89,-0.47159295317863115,-0.13704813205750782,96.67652005725009
8.9,-0.0921838077201028,0.3461524984957672,96.26103678642065
8.91,-0.499248095494662,-0.16012496529055897,95.89002778120113
8.92,0.08150989314198563,-0.4431693892306353,95.62084143672008
8.93,-0.35272435901323546,-1.376603745718541,95.38442560374108
8.94,-0.08539131662493733,-0.349920144737898,95.15971352486996
8.95,-0.5458251772900824,-0.19309186990920346,94.93617182140962
8.96,-0.0029110676122137726,0.3094179476349919,94.72199312123556
8.97,-0.4012421525501317,-0.09607497917433538,94.55345906208221
8.98,-0.11062056926412336,0.15400254014709644,94.39662875703674
8.99,-0.5007036293007688,-0.18838231210653997,94.23979845199126
9.0,-0.050458505278372055,0.21946539360411907,94.07126439283792
9.01,-0.5662026505755787,-0.23877458059503942,93.86878944677174
9.02,-0.08733202836641318,0.18084701962227837,93.67801825481344
9.03,-0.5463103552254513,-0.24395509417796926,93.52001757435717
9.04,-0.09606523120305449,0.14128673407990497,93.38542440211666
9.05,-0.4031828642916075,-0.11820990084685383,93.25083122987613
9.06,0.05142886114910998,0.2750381756755484,93.09400092483065
9.07,-0.30905834483002886,-0.038618373981840697,92.89152597876448
9.08,-0.029110676122137726,0.17802128494068029,92.63287301298053
9.09,-0.4754743766615829,-0.21522679158172192,92.41986468821726
9.1,-0.08975791804325799,0.10549409477966239,92.18344885523825
9.11,-0.3488429355302837,-0.11726798928632114,92.03832230430065
9.12,-0.02765514231603084,0.13280953003511067,92.18344885523825
9.13,-0.4109457112575109,-0.21522679158172192,93.17241607735339
9.14,-0.09024309597862695,0.04426984334503689,96.57586777192239
9.15,-0.4327787183491142,-0.2632642811688896,105.25771256914139
9.16,-0.08733202836641318,0.004238602022397149,116.08485549433323
9.17,-0.3488429355302837,-0.21758157048305368,125.05812376883821
9.18,-0.10431325610432685,-0.029670214156780048,131.55019617247447
9.19,-0.35660578249618713,-0.22558781874758163,135.17718957050383
9.2,0.029110676122137726,0.11820990084685383,136.671758970079
9.21,-0.26054055129313264,-0.10973269680205953,136.99712333427783
9.22,-0.003396245547582735,0.13799004361804054,136.671758970079
9.23,-0.333317241598477,-0.12244850286925098,135.51425768881052
9.24,-0.13536464396794043,0.029670214156780048,132.976883798224
9.25,-0.4798409780799035,-0.25808376758595974,128.4721088421043
9.26,-0.08781720630178214,0.09748784651513444,122.48680899133888
9.27,-0.39105341590738346,-0.16766025777482058,116.58928729638248
9.28,-0.08636167249567525,0.08006248264527949,111.93938578932517
9.29,-0.3663093412035664,-0.15965400951029263,109.0871809132369
9.3,-0.05094368321374102,0.09842975807566713,107.96362051888126
9.31,-0.3779536116524215,-0.18791135632627362,107.987028027097
9.32,-0.1470089144167955,-0.016483452309322248,108.61551962268969
9.33,-0.29256229502748415,-0.11820990084685383,109.35636725771795
9.34,-0.09606523120305449,0.0216639658922521,110.1990375534847
9.35,-0.33186170779237006,-0.1620087884116244,110.50216478487856
9.36,-0.11450199274707505,0.017425363869854948,109.68290199732756
9.37,-0.3182767256020391,-0.12574519333111545,107.59378188907252
9.38,-0.09509487533231657,0.050392268488499446,104.94288158363965
9.39,-0.4065791098391902,-0.21145914533959112,102.43827820455517
9.4,-0.230459519300257,-0.08618490778874204,100.53992928825843
9.41,-0.41822338028804534,-0.2359488459134413,99.34965749548792
9.42,-0.20280437698422615,-0.06593380923728899,98.39463116028561
9.43,-0.396875551131811,-0.21899443782385272,98.00138502226113
9.44,-0.23628165452468455,-0.09419115605326998,98.28227512085004
9.45,-0.4162826685465695,-0.23830362481477307,99.01258937718121
9.46,-0.26199608509923955,-0.1309257069140453,100.32692096349517
9.47,-0.41919373615878325,-0.2359488459134413,101.85426087457239
9.48,-0.3260395725679425,-0.19497569303026888,103.2013629723884
9.49,-0.43568978596132796,-0.26373523694915596,104.10021128787291
9.5,-0.32846546224478734,-0.21805252626332003,104.42557565207174
9.51,-0.21590418123918814,-0.051334180049032146,104.11191504198078
9.52,-0.43326389628448314,-0.302824566711263,103.3371265200397
9.53,-0.19310081827684691,-0.04992131270823309,102.39380393894527
9.54,-0.39833108493791786,-0.27127052943341756,101.50548900215783
9.55,-0.1625346083486023,0.028728302596247347,100.72016710151965
9.56,-0.38717199242443173,-0.18461466586440917,100.00038622388556
9.57,-0.05870653017964441,0.13610622049697513,99.29347947577013
9.58,-0.30517692134707713,-0.17378268291828314,98.61934323915673
9.59,-0.009703558707379241,0.16671834621428788,97.97914788945617
9.6,-0.30032514199338756,-0.16766025777482058,97.40683431358126
9.61,-0.04851779353689621,0.11962276818765288,96.84505411640343
9.62,-0.28140320251399803,-0.15682827482869452,96.32774818483551
9.63,-0.02086265122086537,0.13563526471670878,95.84555351559122
9.64,-0.42792693899542456,-0.2773929545768801,95.44060362345887
9.65,-0.038814234829516965,0.3725260221906828,95.1269430133679
9.66,-0.320217437343515,-0.05981138409382644,94.86829004758395
9.67,0.15816800693028166,-0.35698448144189326,94.65528172282069
9.68,-0.14894962615827137,-1.3813133035212044,94.49728104236443
9.69,0.11692788242391987,-0.3734679337512155,94.3626878701239
9.7,-0.39639037319644205,-0.24018744793583846,94.20585756507843
9.71,-0.010673914578117167,0.27127052943341756,94.03732350592509
9.72,-0.2780069569664153,-0.11820990084685383,93.86878944677174
9.73,0.06064724192112026,0.24254222683717022,93.72249252042334
9.74,-0.39105341590738346,-0.24536796151876833,93.57619559407495
9.75,0.14361266886921278,0.3197789748008516,93.43106904313734
9.76,-0.3260395725679425,-0.18367275430387647,93.32924638239886
9.77,0.07035080062849951,0.2246459071870489,93.23912747576826
9.78,-0.3633982735913526,-0.22935546498971243,93.10453430352774
9.79,0.16544567596081608,0.30612125717312744,92.94770399848225
9.8,-0.332832063663108,-0.22935546498971243,92.80140707213387
9.81,0.064043487468703,0.17566650603934852,92.62233963428343
9.82,-0.4162826685465695,-0.33720433867070654,92.40816093410939
9.83,-0.06695455508091677,0.036734550860775296,92.16121172243331
9.84,-0.5652322947048408,-0.4855554094546068,91.88032162384438
9.85,-0.0009703558707379241,0.09937166963619984,91.61113527936334
9.86,-0.5904615473440269,-0.5227609160956485,91.43089746610212
9.87,-0.04948814940763414,0.03532168351997624,91.42036408740505
9.88,-0.48032615601527245,-0.44552416813196705,91.89202537795227
9.89,0.038329056894148006,0.07817865952421409,93.75643340733617
9.9,-0.48032615601527245,-0.4789620285308779,99.56266582025117
9.91,0.1586531848656506,0.15023489390496564,109.81749516956809
9.92,-0.4517006578285037,-0.49685834818099917,119.70131551366548
9.93,0.13002768667888184,0.10031358119673253,127.43983772979004
9.94,-0.41822338028804534,-0.45400137217676134,132.51575588637388
9.95,0.19552670795369173,0.19167900256840442,134.98641837854552
9.96,-0.3032362096056013,-0.31224368231659,135.88526669403004
9.97,0.14506820267531967,0.18696944476574093,135.8173849202044
9.98,-0.3313765298570011,-0.2886958933032725,135.21113045741666
9.99,0.15283104964122307,0.2359488459134413,133.33618904933564
