time_s,ECG,NIBP
0.0,-0.16431552063737595,103.51470841844981
0.01,-0.1663187867815762,102.41599875112459
0.02,-0.16326619075231869,101.04283018519943
0.03,-0.15639784968648934,99.57788396209914
0.04,-0.15396531222567478,95.85433329956497
0.05,-0.15076962575754582,93.56601038066486
0.06,-0.14647691259140247,91.06353959502277
0.07,-0.14604764127478814,88.80493515558891
0.08,-0.14299504524553067,86.97375237671353
0.09,-0.14528449226747378,85.56999125839667
0.1,-0.1473831520375883,84.1968226924715
0.11,-0.14509370501564517,83.06752047275457
0.12,-0.1473831520375883,82.06058846260449
0.13,-0.15215283333330312,81.32811535105434
0.14,-0.15076962575754582,80.50386458232906
0.15,-0.15076962575754582,80.29059078851255
0.16,-0.15425149310341765,79.03891835922876
0.17,-0.15472846123298914,78.33703780007032
0.18,-0.15215283333330312,77.4830685518788
0.19,-0.1541084026645462,75.86515956681994
0.2,-0.15778105726224664,74.58376865806991
0.21,-0.1554916102403035,74.27871720707827
0.22,-0.15105580663528873,74.21753210229484
0.23,-0.15062653531867437,74.30930975946998
0.24,-0.15029265762797434,73.79011044173635
0.25,-0.15076962575754582,73.51565154313641
0.26,-0.15396531222567478,73.48505899074469
0.27,-0.15668403056423222,74.00425830847833
0.28,-0.15730408913267516,73.79011044173635
0.29,-0.1501495671891029,73.97366575608662
0.3,-0.1445213432601594,73.88188809891149
0.31,-0.15091271619641727,73.94307320369491
0.32,-0.15334525365723184,80.50386458232906
0.33,-0.15215283333330312,80.68741989667933
0.34,-0.15215283333330312,79.83257657556233
0.35,-0.15334525365723184,79.52752512457069
0.36,-0.15668403056423222,78.52059311442059
0.37,-0.15534851980143208,78.27672676821237
0.38,-0.15229592377217457,78.21554166342895
0.39,-0.155968578369875,77.57484620905393
0.4,-0.15840111583068955,77.08623944371202
0.41,-0.15821032857886097,76.26198867498672
0.42,-0.1554916102403035,75.34683432201177
0.43,-0.15305907277948894,75.04178287102013
0.44,-0.15076962575754582,74.15634699751142
0.45,-0.1518189556426031,73.51565154313641
0.46,-0.1557777911180464,72.6302156696277
0.47,-0.14356740700101644,72.38634932341948
0.48,-0.11261217539182718,71.53238007522795
0.49,-0.09153018406476762,71.25704710370253
0.5,-0.07326230470217981,70.73872185889438
0.51,-0.03524794477533261,70.46426296029445
0.52,-0.015119889707416016,70.00624874734423
0.53,-0.028379603709503248,69.15140542622723
0.54,-0.05585296797282068,69.0596277690521
0.55,-0.10741322277949801,69.18199797861895
0.56,-0.15029265762797434,68.23625107325229
0.57,-0.1678450847962049,68.266843625644
0.58,-0.17685978244510595,67.8394219650855
0.59,-0.1770028728839774,67.56496306648556
0.6,-0.18081861792054926,67.07635630114363
0.61,-0.2438261078369422,66.77130485015199
0.62,-0.31064934278990697,66.77130485015199
0.63,0.08575886969695268,66.86308250732714
0.64,1.2837120239286899,65.88586897664328
0.65,2.1130165108146275,66.06942429099355
0.66,1.2313886201146982,65.97764663381842
0.67,-0.07889052863112332,65.61141007804335
0.68,-0.28899498970736165,65.58081752565163
0.69,-0.0637706389237073,65.64200263043506
0.7,-0.057665446865192316,65.55022497325992
0.71,-0.10297741917448322,65.24517352226827
0.72,-0.09873240282129701,65.12367738562689
0.73,-0.08590196013582412,65.21458096987655
0.74,-0.0766010816091802,65.21458096987655
0.75,-0.06257821859977859,65.18398841748484
0.76,-0.04454882330197653,65.12367738562689
0.77,-0.024420768234059937,64.84834441410148
0.78,-0.0036726545977004204,64.7268482774601
0.79,0.02060502319748807,64.84834441410148
0.8,0.05356352095087756,64.6962557250684
0.81,0.09262721076278203,64.81775186170977
0.82,0.1445213432601594,64.33001916929332
0.83,0.21468335512012457,64.45151530593469
0.84,0.2893288673980617,64.36061172168503
0.85,0.35691525135834085,64.02496771830167
0.86,0.41839644326010506,63.50576840056804
0.87,0.46785803829666783,63.68932371491831
0.88,0.4852196782130698,63.50576840056804
0.89,0.4489224035526799,63.719916267310026
0.9,0.35720143223608375,63.93319006112654
0.91,0.2351452878787412,64.02496771830167
0.92,0.12024366546497091,63.96378261351825
0.93,0.03143219973876074,63.99437516590996
0.94,-0.034627886206889676,65.5196324208682
0.95,-0.07993985851618057,70.76931441128609
0.96,-0.1078901909090695,79.68048788652925
0.97,-0.1244886818181571,90.78820662349736
0.98,-0.1333602890281867,90.60552538207256
0.99,-0.14084868866245898,90.81879917588907
1.0,-0.14862326917447416,105.43679478157485
1.01,-0.1504357480668458,104.42986277142477
1.02,-0.14924332774291707,103.14847186267474
1.03,-0.15000647675023146,101.92739198578266
1.04,-0.15215283333330312,100.27976452125758
1.05,-0.1545853707941177,98.75363319337386
1.06,-0.15138968432598876,96.3429400649069
1.07,-0.14466443369903084,94.35879452407296
1.08,-0.14008553965514461,91.82660525896463
1.09,-0.1387023320793873,90.02601503248098
1.1,-0.13579282648900126,87.85918825022225
1.11,-0.1359359169278727,86.33305692233853
1.12,-0.1377960926332015,85.02107346119679
1.13,-0.1403717205328875,83.128705577538
1.14,-0.14356740700101644,82.60950625980436
1.15,-0.14862326917447416,81.90762570064592
1.16,-0.1541084026645462,80.4129609980794
1.17,-0.15778105726224664,80.35177589329597
1.18,-0.1641724301985045,79.03891835922876
1.19,-0.1683220529257764,78.30731932060408
1.2,-0.16708193578889055,77.54425365666222
1.21,-0.16875132424239075,76.75059544032865
1.22,-0.17485651630090573,75.83456701442823
1.23,-0.1820587350574351,75.07237542341184
1.24,-0.18616066097174988,74.98059776623671
1.25,-0.18463436295712113,75.07237542341184
1.26,-0.17957850078366341,75.10296797580355
1.27,-0.17943541034479196,75.10296797580355
1.28,-0.18110479879829217,74.24812465468656
1.29,-0.1814386764889922,74.33990231186169
1.3,-0.1828218840647495,74.49199100089479
1.31,-0.18663762910132137,74.67554631524506
1.32,-0.1870669004179357,74.49199100089479
1.33,-0.18525442152556407,81.41989300822948
1.34,-0.18692380997906424,81.75553701161284
1.35,-0.18949943787875026,81.84731466878797
1.36,-0.18949943787875026,81.29752279866263
1.37,-0.18678071954019282,81.0536564524544
1.38,-0.18325115538136383,80.56504968711248
1.39,-0.18387121394980677,79.80198402317062
1.4,-0.1907395550156361,79.46634001978725
1.41,-0.1915027040229505,78.7032743558454
1.42,-0.18415739482754964,77.81871255526217
1.43,-0.167225026227762,77.57484620905393
1.44,-0.13855924164051586,76.6282252307618
1.45,-0.11628482998952759,75.86515956681994
1.46,-0.09186406175546766,74.58376865806991
1.47,-0.051130983490062995,74.33990231186169
1.48,-0.03372164676070386,73.42387388596127
1.49,-0.05036783448274862,72.81377098397797
1.5,-0.09277030120165347,72.26397911385263
1.51,-0.1515327747648602,71.5926911070859
1.52,-0.1901194964471932,71.07436586227774
1.53,-0.20552556703235209,70.83049951606952
1.54,-0.2099613706373669,70.28070764594416
1.55,-0.21043833876693838,70.09802640451937
1.56,-0.2143971742423817,69.54823453439403
1.57,-0.28641936180767563,69.27377563579408
1.58,-0.34150918077318193,68.72398376566873
1.59,0.15119889707416018,68.35774720989366
1.6,1.4512709278471518,68.23625107325229
1.61,2.1785042350047923,67.87001451747722
1.62,1.0967882139496254,67.50377796170214
1.63,-0.18434818207937825,67.25991161549392
1.64,-0.2767846055903317,67.19872651071049
1.65,-0.059334835318692505,66.83248995493541
1.66,-0.07993985851618057,66.67952719297685
1.67,-0.11900354832808505,66.49684595155206
1.68,-0.11413847340645591,66.34388318959348
1.69,-0.10603001520374071,66.49684595155206
1.7,-0.09582289723091096,66.10001684338526
1.71,-0.08270627366769519,65.97764663381842
1.72,-0.06501075606059316,65.58081752565163
1.73,-0.04454882330197653,65.58081752565163
1.74,-0.022894470219431192,65.55022497325992
1.75,0.005342043051200612,65.70318773521848
1.76,0.04149622727271904,65.58081752565163
1.77,0.08680819958200994,65.67259518282677
1.78,0.1440443751305879,65.58081752565163
1.79,0.2139202061128102,65.67259518282677
1.8,0.2934307933123764,65.12367738562689
1.81,0.3696979972308566,65.21458096987655
1.82,0.430606827377135,64.81775186170977
1.83,0.4705767566352253,64.94012207127662
1.84,0.48250095987451236,64.84834441410148
1.85,0.43943073777420744,64.90952951888491
1.86,0.3346408397073526,65.5196324208682
1.87,0.20738574273768087,65.67259518282677
1.88,0.09825543469172553,65.55022497325992
1.89,0.015406070585158907,65.67259518282677
1.9,-0.04760141933123402,65.55022497325992
1.91,-0.09277030120165347,65.67259518282677
1.92,-0.12148378260185676,67.07635630114363
1.93,-0.1391793002089588,73.14941498736134
1.94,-0.14833708829673126,82.57891370741265
1.95,-0.1534883440961033,93.84046927926481
1.96,-0.155968578369875,105.46738733396656
1.97,-0.1576379668233752,104.82669187959155
1.98,-0.15897347758617533,103.57501945030776
1.99,-0.16035668516193263,102.41599875112459
2.0,-0.15897347758617533,100.18798686408243
2.01,-0.1557777911180464,98.50976684716564
2.02,-0.14967259905953142,96.3429400649069
2.03,-0.14356740700101644,93.47423272348973
2.04,-0.14113486954020188,91.42977615079785
2.05,-0.14008553965514461,89.53740826713906
2.06,-0.1377960926332015,87.9500918344719
2.07,-0.13488658704281545,86.76047858289702
2.08,-0.13321719858931524,85.44762104882982
2.09,-0.1342665284743725,85.14256959783816
2.1,-0.1356497360501298,83.83058613669643
2.11,-0.1387023320793873,83.128705577538
2.12,-0.1412779599790733,82.15236611977963
2.13,-0.1454275827063452,81.75553701161284
2.14,-0.14986338631136,80.44355355047111
2.15,-0.15167586520373164,79.80198402317062
2.16,-0.1548715516718606,79.03891835922876
2.17,-0.15883038714730388,77.87989766004559
2.18,-0.16049977560080408,77.0556468913203
2.19,-0.16221686086726142,77.20860965327886
2.2,-0.16221686086726142,77.08623944371202
2.21,-0.15916426483800394,77.0556468913203
2.22,-0.155968578369875,76.26198867498672
2.23,-0.155968578369875,75.52951556343658
2.24,-0.15945044571574682,75.3774268744035
2.25,-0.16097674373037557,75.1632790076615
2.26,-0.1571609986938037,74.95000521384499
2.27,-0.1541084026645462,75.1632790076615
2.28,-0.15444228035524624,82.18295867217134
2.29,-0.15501464211073201,82.24326970402929
2.3,-0.15444228035524624,82.24326970402929
2.31,-0.15334525365723184,82.273862256421
2.32,-0.15091271619641727,81.32811535105434
2.33,-0.14910023730404565,81.0230639000627
2.34,-0.1475739392894169,80.47327202993733
2.35,-0.1457137635840881,79.77139147077891
2.36,-0.1426611675548306,79.77139147077891
2.37,-0.14189801854751624,79.43574746739554
2.38,-0.1391793002089588,78.67268180345368
2.39,-0.13502967748168687,77.9104902124373
2.4,-0.13107084200624358,77.08623944371202
2.41,-0.11413847340645591,76.81178054511207
2.42,-0.08070300752349495,75.80484853496199
2.43,-0.05752235642632087,75.1632790076615
2.44,-0.038586721682332986,74.21753210229484
2.45,0.0035295641588289754,73.88188809891149
2.46,0.031146018861017852,73.02704477779449
2.47,0.01893563474398788,72.81377098397797
2.48,-0.02151126264367389,71.89861663100302
2.49,-0.08041682664575206,71.53238007522795
2.5,-0.12219923479621399,71.16614351945287
2.51,-0.13717603406475856,70.76931441128609
2.52,-0.1391793002089588,70.31130019833589
2.53,-0.1389885129571302,69.97565619495252
2.54,-0.14356740700101644,69.4870494296106
2.55,-0.20781501405429523,69.24318308340237
2.56,-0.29877283636357704,68.66367273381078
2.57,0.07230836844303684,68.81576142284388
2.58,1.3302641133748665,68.23625107325229
2.59,2.3356652336985957,67.96179217465235
2.6,1.504691358359158,67.8394219650855
2.61,0.007917670950886621,67.44259285691871
2.62,-0.29524327220474805,67.13754140592707
2.63,-0.018744847492159288,67.2293190631022
2.64,-0.005342043051200612,66.8018974025437
2.65,-0.06224434090907855,66.40506829437692
2.66,-0.05723617554857798,66.28269808481006
2.67,-0.04426264242423364,66.40506829437692
2.68,-0.036011093782646976,65.97764663381842
2.69,-0.023323741536045526,66.40506829437692
2.7,-0.008251548641586658,66.03883173860184
2.71,0.008108458202715213,65.97764663381842
2.72,0.029619720846389103,65.91646152903499
2.73,0.05613914885056357,66.10001684338526
2.74,0.09415350877741077,65.55022497325992
2.75,0.1440443751305879,65.64200263043506
2.76,0.19822795464990842,65.58081752565163
2.77,0.26185550313474426,65.61141007804335
2.78,0.3388858560605388,65.55022497325992
2.79,0.4165839643677334,65.48991394140197
2.8,0.4847904068964555,65.48991394140197
2.81,0.5366368425808757,65.64200263043506
2.82,0.5629177865202645,65.09308483323518
2.83,0.538640108725076,65.21458096987655
2.84,0.4512118505746231,65.15339586509313
2.85,0.32929879665615197,65.58081752565163
2.86,0.21010446107623834,67.50377796170214
2.87,0.11351841483801299,67.56496306648556
2.88,0.0453119723092909,67.65586665073522
2.89,0.000906239446185818,67.626148171269
2.9,-0.027902635579931764,67.47318540931043
2.91,-0.04869844602924843,73.11882243496962
2.92,-0.061624282340635626,82.24326970402929
2.93,-0.06834953296759354,93.19977382488979
2.94,-0.07493169315568,102.1712583319909
2.95,-0.07965367763843768,105.46738733396656
2.96,-0.08256318322882374,105.49797988635827
2.97,-0.08132306609193787,104.7043216700247
2.98,-0.07478860271680857,103.57501945030776
2.99,-0.07140212899685103,102.11094730013295
3.0,-0.06973274054335084,99.85234286069908
3.01,-0.06591699550677897,97.5937384212652
3.02,-0.061624282340635626,95.12186018801482
3.03,-0.058142414994763796,92.74175961193959
3.04,-0.05494672852663486,90.6973030392477
3.05,-0.050033956792048584,89.14057915897227
3.06,-0.04898462690699132,87.43176658966375
3.07,-0.05265728150469174,86.42483457951366
3.08,-0.056759207419006495,85.02107346119679
3.09,-0.05966871300939254,84.31919290203835
3.1,-0.06195816003133566,83.83058613669643
3.11,-0.06410451661440733,82.67069136458778
3.12,-0.06758638396027916,81.90762570064592
3.13,-0.0721652780041654,81.08424900484611
3.14,-0.07612411347960871,79.80198402317062
3.15,-0.08284936410656663,78.7338669082371
3.16,-0.08561577925808123,77.84930510765388
3.17,-0.08375560355275244,76.65881778315351
3.18,-0.08375560355275244,76.26198867498672
3.19,-0.08561577925808123,76.32317377977016
3.2,-0.08561577925808123,76.2008035702033
3.21,-0.08604505057469557,75.46833045865316
3.22,-0.08590196013582412,75.04178287102013
3.23,-0.08528190156738119,75.01119031862842
3.24,-0.08695129002088138,75.43861197918692
3.25,-0.0889545561650816,75.52951556343658
3.26,-0.08847758803551013,75.4080194267952
3.27,-0.08866837528733872,82.273862256421
3.28,-0.0889545561650816,82.18295867217134
3.29,-0.08790522628002435,82.30445480881271
3.3,-0.07993985851618057,81.75553701161284
3.31,-0.05079710579936296,81.45048556062119
3.32,-0.01893563474398788,80.96187879527926
3.33,-0.00624828249738643,80.13762802655398
3.34,0.02380070966561701,79.71108043892096
3.35,0.06563081462903608,79.83257657556233
3.36,0.0735484855799227,78.97860732737081
3.37,0.044405732863105084,78.24613421582066
3.38,-0.008394639080458104,77.45247599948709
3.39,-0.06334136760709297,76.72000288793694
3.4,-0.09553671635316807,75.77425598257028
3.41,-0.10755631321836945,75.59070066822001
3.42,-0.10970266980144112,74.61436121046164
3.43,-0.11032272836988406,73.88188809891149
3.44,-0.1207206335945424,73.48505899074469
3.45,-0.21959612685471086,72.66080822201941
3.46,-0.24430307596651368,72.32516421863605
3.47,0.4136744587773474,71.65387621186933
3.48,1.821732074085323,71.13555096706116
3.49,2.329846222517824,70.73872185889438
3.5,1.0015853752871575,70.15833743637732
3.51,-0.2253674412225258,69.94506364256081
3.52,-0.20371308813998046,69.5176419820023
3.53,0.03372164676070386,69.18199797861895
3.54,0.005198952612329166,68.75457631806044
3.55,-0.03706042366770424,68.75457631806044
3.56,-0.03004899216300344,68.29743617803571
3.57,-0.01950799649947366,67.96179217465235
3.58,-0.008251548641586658,67.53437051409385
3.59,0.008680819958200994,67.90060706986893
3.6,0.026567124817131613,67.47318540931043
3.61,0.04655208944617676,67.13754140592707
3.62,0.0721652780041654,67.19872651071049
3.63,0.10345438730405469,67.19872651071049
3.64,0.14237498667708773,66.77130485015199
3.65,0.188450107993693,66.77130485015199
3.66,0.24568628354227098,66.8018974025437
3.67,0.31770847110756495,66.37447574198521
3.68,0.39292634514098784,66.40506829437692
3.69,0.4641853836989674,66.43566084676863
3.7,0.5274790544931033,65.91646152903499
3.71,0.5697861275860938,65.97764663381842
3.72,0.5732679949319656,65.9470540814267
3.73,0.5183212664053307,66.13060939577699
3.74,0.4081893252872753,66.34388318959348
3.75,0.28274670720997525,67.87001451747722
3.76,0.17609663343779158,67.90060706986893
3.77,0.09291339164052492,67.93119962226064
3.78,0.033244678631132375,73.02704477779449
3.79,-0.006105192058514984,82.24326970402929
3.8,-0.03066905073144637,92.68057450715615
3.81,-0.04912771734586276,101.95798453817439
3.82,-0.06224434090907855,101.92739198578266
3.83,-0.07230836844303684,102.0191696429578
3.84,-0.07841356050155183,107.024111214242
3.85,-0.08346942267500955,105.92540154691677
3.86,-0.0849957206896383,105.13174333058319
3.87,-0.08117997565306644,105.13174333058319
3.88,-0.07874743819225187,105.13174333058319
3.89,-0.07889052863112332,105.19292843536662
3.9,-0.07645799117030876,105.07055822579977
3.91,-0.07307151745035122,103.69738965987462
3.92,-0.06911268197490791,102.35481364634117
3.93,-0.06639396363635046,100.00530562265764
3.94,-0.0634844580459644,97.13659828124047
3.95,-0.0634844580459644,86.79107113528873
3.96,-0.0651538464994646,85.53939870600495
3.97,-0.06606008594565042,84.71514793727967
3.98,-0.06606008594565042,83.89177124147986
3.99,-0.06529693693833605,82.73187646937122
4.0,-0.0695896501044794,81.90762570064592
4.01,-0.07917670950886621,80.56504968711248
4.02,-0.08680819958200994,79.74079891838718
4.03,-0.08971770517239598,78.7338669082371
4.04,-0.09153018406476762,78.64296332398744
4.05,-0.0950597482235966,77.4830685518788
4.06,-0.09458278009402511,76.56704012597838
4.07,-0.09138709362589617,75.92634467160336
4.08,-0.09095782230928184,75.07237542341184
4.09,-0.09381963108671074,74.24812465468656
4.1,-0.09381963108671074,74.21753210229484
4.11,-0.09443968965515366,74.61436121046164
4.12,-0.0964429557993539,74.61436121046164
4.13,-0.09477356734585371,75.04178287102013
4.14,-0.0707820704284081,75.89575211921165
4.15,-0.03477097664576112,75.83456701442823
4.16,-0.01922181562173077,75.86515956681994
4.17,0.0012401171368858562,75.86515956681994
4.18,0.04822147789967695,81.72494445922112
4.19,0.06925577241377935,81.93821825303763
4.2,0.04793529702193406,81.45048556062119
4.21,0.0038157450365718655,81.38930045583777
4.22,-0.05294346238243463,80.93128624288755
4.23,-0.09186406175546766,80.13762802655398
4.24,-0.10698395146288367,79.43574746739554
4.25,-0.11428156384532737,79.13069601640389
4.26,-0.11948051645765653,78.30731932060408
4.27,-0.12162687304072821,77.51366110427051
4.28,-0.15973662659348972,76.68941033554522
4.29,-0.2780247227272175,76.23139612259502
4.3,-0.07993985851618057,75.3774268744035
4.31,1.015942115987259,74.64495376285335
4.32,2.27370707366726,73.88188809891149
4.33,1.8702874296756997,73.45446643835298
4.34,0.2772615737199032,72.78317843158626
4.35,-0.3481867345871827,72.35575677102776
4.36,-0.0779842891849375,71.56209855469419
4.37,0.030955231609189258,71.22645455131082
4.38,-0.025470098119117202,70.70812930650267
4.39,-0.03648806191221846,70.3418927507276
4.4,-0.020128055067916588,69.88387853777738
4.41,-0.009777846656215405,69.57882708678574
4.42,0.000763149007314373,69.12081287383552
4.43,0.01359359169278727,69.12081287383552
4.44,0.03310158819226093,68.75457631806044
4.45,0.056759207419006495,68.6942652862025
4.46,0.08623583782652415,68.32802873042742
4.47,0.11766803756528489,67.90060706986893
4.48,0.15701790825493225,67.56496306648556
4.49,0.21101070052242415,67.56496306648556
4.5,0.2795510207418463,67.10694885353536
4.51,0.3526225381921975,67.13754140592707
4.52,0.4247878161963629,66.77130485015199
4.53,0.49208801927889917,66.40506829437692
4.54,0.5459377211075196,66.43566084676863
4.55,0.5705492765934082,66.00823918621013
4.56,0.544125242215148,65.9470540814267
4.57,0.4530243294669947,66.43566084676863
4.58,0.32700934963420886,67.04576374875192
4.59,0.20767192361542378,69.5176419820023
4.6,0.11351841483801299,69.5176419820023
4.61,0.04426264242423364,69.42586432482717
4.62,-0.000763149007314373,76.68941033554522
4.63,-0.029762811285260548,86.18009416037997
4.64,-0.046981360762791094,96.73976917307368
4.65,-0.057045388296749384,105.03996567340806
4.66,-0.06467687836989312,105.10115077819148
4.67,-0.07140212899685103,105.10115077819148
4.68,-0.0763149007314373,105.10115077819148
4.69,-0.07979676807730914,104.33808511424962
4.7,-0.08027373620688062,103.57501945030776
4.71,-0.08055991708462351,101.89679943339095
4.72,-0.08013064576800917,99.57788396209914
4.73,-0.07784119874606606,96.77036172546539
4.74,-0.07326230470217981,94.29848349221501
4.75,-0.0721652780041654,91.97869394799773
4.76,-0.07292842701147978,89.56800081953077
4.77,-0.07431163458723708,87.88978080261396
4.78,-0.07707804973875168,86.6687009257219
4.79,-0.07750732105536601,85.14256959783816
4.8,-0.07493169315568,85.08138449305474
4.81,-0.07827047006268038,84.28860034964664
4.82,-0.08299245454543808,83.52553468570478
4.83,-0.08714207727270998,82.24326970402929
4.84,-0.08833449759663868,80.99247134767097
4.85,-0.08881146572621017,79.74079891838718
4.86,-0.09262721076278203,78.61237077159574
4.87,-0.0976353761232826,78.7032743558454
4.88,-0.09978173270635428,78.7032743558454
4.89,-0.09858931238242558,77.36069834231195
4.9,-0.09825543469172553,76.68941033554522
4.91,-0.09839852513059698,75.4080194267952
4.92,-0.0976353761232826,75.10296797580355
4.93,-0.09672913667709679,74.98059776623671
4.94,-0.09477356734585371,75.04178287102013
4.95,-0.09186406175546766,75.01119031862842
4.96,-0.09262721076278203,75.07237542341184
4.97,-0.09672913667709679,75.07237542341184
4.98,-0.09567980679203952,74.98059776623671
4.99,-0.09138709362589617,78.64296332398744
5.0,-0.09095782230928184,80.10703547416226
5.01,-0.09215024263321055,81.32811535105434
5.02,-0.09019467330196747,82.21355122456305
5.03,-0.08742825815045287,81.75553701161284
5.04,-0.08943152429465309,81.75553701161284
5.05,-0.09076703505745325,81.78612956400455
5.06,-0.08575886969695268,80.99247134767097
5.07,-0.07035279911179376,80.1682205789457
5.08,-0.03419861489027534,79.43574746739554
5.09,-0.003052596029257492,79.43574746739554
5.1,0.016646187722044764,78.36763035246203
5.11,0.06086113333332125,77.54425365666222
5.12,0.09658604623822534,76.78118799272036
5.13,0.08695129002088138,75.86515956681994
5.14,0.046695179885048205,75.43861197918692
5.15,-0.01359359169278727,74.5225835532865
5.16,-0.06300748991639292,73.82070299412806
5.17,-0.08652201870426704,73.48505899074469
5.18,-0.09491665778472515,73.0882298825779
5.19,-0.09706301436779682,72.29457166624434
5.2,-0.0990185836990399,71.92833511046926
5.21,-0.1325971400208723,71.53238007522795
5.22,-0.2531269863635861,70.73872185889438
5.23,-0.12100681447228528,70.7999069636778
5.24,0.8802923799371293,69.97565619495252
5.25,2.2143722383485676,69.4870494296106
5.26,2.0289747263841322,69.12081287383552
5.27,0.4458698075234225,69.09022032144381
5.28,-0.3329237544408952,68.266843625644
5.29,-0.09706301436779682,68.266843625644
5.3,0.04545506274816235,67.96179217465235
5.31,-0.012210384117029969,67.56496306648556
5.32,-0.03400782763844675,67.59555561887727
5.33,-0.020271145506788036,67.07635630114363
5.34,-0.010827176541272668,66.74071229776028
5.35,-0.000906239446185818,66.71011974536856
5.36,0.012973533124344343,66.31329063720177
5.37,0.028999662277946175,66.34388318959348
5.38,0.049747775914305695,66.46625339916034
5.39,0.07555175172412293,65.97764663381842
5.4,0.10727013234062656,65.97764663381842
5.41,0.15000647675023146,65.9470540814267
5.42,0.2052393861546092,65.5196324208682
5.43,0.2687238442005736,65.55022497325992
5.44,0.3397920955067246,65.55022497325992
5.45,0.41582081536041904,65.58081752565163
5.46,0.4884153646811988,65.18398841748484
5.47,0.5457946306686482,65.12367738562689
5.48,0.5793731869904806,64.84834441410148
5.49,0.5648733558515076,64.7268482774601
5.5,0.487843002925713,64.84834441410148
5.51,0.3717012633750568,65.12367738562689
5.52,0.25484407163004347,65.97764663381842
5.53,0.15744717957154658,69.94506364256081
5.54,0.08208621509925225,77.84930510765388
5.55,0.02518391724137431,88.1642397012139
5.56,-0.01387977257053016,98.4179891899905
5.57,-0.03768048223614717,105.92540154691677
5.58,-0.05036783448274862,109.16034544410901
5.59,-0.05995489388713544,109.06856778693387
5.6,-0.06682323495296479,107.87808046243352
5.61,-0.0679202616509792,107.024111214242
5.62,-0.06911268197490791,105.86421644213334
5.63,-0.0707820704284081,105.10115077819148
5.64,-0.07326230470217981,103.51470841844981
5.65,-0.07536096447229435,101.92739198578266
5.66,-0.07493169315568,99.88293541309079
5.67,-0.07264224613373689,99.9135279654825
5.68,-0.07020970867292232,97.19690931309842
5.69,-0.07001892142109373,94.2678909398233
5.7,-0.0679202616509792,91.58186483983093
5.71,-0.06591699550677897,89.53740826713906
5.72,-0.06882650109716502,87.43176658966375
5.73,-0.07140212899685103,84.22741524486322
5.74,-0.07292842701147978,83.09811302514629
5.75,-0.07645799117030876,82.21355122456305
5.76,-0.08242009278995228,81.41989300822948
5.77,-0.09095782230928184,80.50386458232906
5.78,-0.09672913667709679,79.46634001978725
5.79,-0.1004017912747972,78.67268180345368
5.8,-0.10164190841168307,77.51366110427051
5.81,-0.10498068531868344,76.56704012597838
5.82,-0.10970266980144112,75.43861197918692
5.83,-0.11351841483801299,74.49199100089479
5.84,-0.11232599451408429,74.27871720707827
5.85,-0.11213520726225569,74.18693954990313
5.86,-0.11366150527688444,74.27871720707827
5.87,-0.11537859054334178,73.82070299412806
5.88,-0.11566477142108467,73.42387388596127
5.89,-0.11595095229882756,73.88188809891149
5.9,-0.11399538296758448,74.30930975946998
5.91,-0.1118490263845128,74.21753210229484
5.92,-0.11261217539182718,74.24812465468656
5.93,-0.11308914352139866,74.24812465468656
5.94,-0.11399538296758448,74.30930975946998
5.95,-0.11518780329151318,81.29752279866263
5.96,-0.11399538296758448,80.99247134767097
5.97,-0.11108587737719842,80.96187879527926
5.98,-0.10755631321836945,80.53445713472077
5.99,-0.10741322277949801,79.71108043892096
6.0,-0.10831946222568382,79.43574746739554
6.01,-0.1104658188087555,78.64296332398744
6.02,-0.11442465428419882,78.24613421582066
6.03,-0.11766803756528489,77.4830685518788
6.04,-0.11976669733539942,76.68941033554522
6.05,-0.11933742601878508,75.83456701442823
6.06,-0.11442465428419882,75.3774268744035
6.07,-0.1118490263845128,74.61436121046164
6.08,-0.10297741917448322,73.9124806513032
6.09,-0.0738346664576656,73.18000753975305
6.1,-0.04912771734586276,72.75258587919456
6.11,-0.0369173332288328,71.86802407861131
6.12,0.004435803605014794,71.50178752283624
6.13,0.04240246671890485,71.07436586227774
6.14,0.03920678025077592,70.73872185889438
6.15,0.004721984482757683,69.88387853777738
6.16,-0.05570987753394924,69.91447109016909
6.17,-0.10698395146288367,69.42586432482717
6.18,-0.12925836311387193,69.15140542622723
6.19,-0.13822536394981583,68.60248762902737
6.2,-0.1403717205328875,68.41893231467708
6.21,-0.14251807711595918,67.8394219650855
6.22,-0.17881535177634905,67.65586665073522
6.23,-0.3016823419539631,67.47318540931043
6.24,-0.1403717205328875,67.2293190631022
6.25,0.9094351326539469,66.67952719297685
6.26,2.207933168599353,66.37447574198521
6.27,1.9131668645241762,65.91646152903499
6.28,0.3279155890803947,65.67259518282677
6.29,-0.3686486673457993,65.5196324208682
6.3,-0.1118490263845128,65.70318773521848
6.31,0.010970266980144113,65.18398841748484
6.32,-0.051751042058505926,65.12367738562689
6.33,-0.06911268197490791,65.21458096987655
6.34,-0.053086552821306074,65.24517352226827
6.35,-0.04149622727271904,64.78803338224354
6.36,-0.02885657183907473,64.84834441410148
6.37,-0.011447235109715596,64.84834441410148
6.38,0.009443968965515366,64.84834441410148
6.39,0.030955231609189258,64.7268482774601
6.4,0.057045388296749384,64.90952951888491
6.41,0.0903377637408389,64.6962557250684
6.42,0.1303076929989292,64.78803338224354
6.43,0.179769288035492,64.7268482774601
6.44,0.24001036280037033,64.4821078583264
6.45,0.3093138320271068,64.2688340645099
6.46,0.38286231760702955,64.02496771830167
6.47,0.4531674199058662,63.90259750873482
6.48,0.5126930424763873,63.62813861013489
6.49,0.5494672852663486,63.566953505351464
6.5,0.5461285083593482,63.62813861013489
6.51,0.4786852148379405,63.50576840056804
6.52,0.36192341671884143,64.05556027069339
6.53,0.24063042136881327,64.29942661690161
6.54,0.13932239064783022,67.65586665073522
6.55,0.05995489388713544,75.04178287102013
6.56,0.0029095055903860475,85.78326505221318
6.57,-0.03524794477533261,96.73976917307368
6.58,-0.059525622570521096,104.7349142224164
6.59,-0.07478860271680857,107.75658432579215
6.6,-0.08470953981189541,107.93926556721694
6.61,-0.09110091274815328,106.68846721085863
6.62,-0.09443968965515366,105.52857243874999
6.63,-0.09672913667709679,104.33808511424962
6.64,-0.09596598766978241,103.02610165310789
6.65,-0.09200715219433911,101.46937777283246
6.66,-0.09000388605013887,99.97471307026592
6.67,-0.08957461473352454,97.50283483701554
6.68,-0.08771443902819576,95.09126763562311
6.69,-0.08790522628002435,92.28374539898937
6.7,-0.09124400318702473,89.96482992769755
6.71,-0.09095782230928184,87.43176658966375
6.72,-0.08881146572621017,85.56999125839667
6.73,-0.08680819958200994,83.92236379387157
6.74,-0.08833449759663868,82.64009881219607
6.75,-0.09138709362589617,81.38930045583777
6.76,-0.09353345020896785,80.53445713472077
6.77,-0.09811234425285409,79.34484388314588
6.78,-0.10359747774292614,79.10010346401218
6.79,-0.10865333991638386,77.81871255526217
6.8,-0.11079969649945554,77.08623944371202
6.81,-0.11366150527688444,75.86515956681994
6.82,-0.11580786185995612,75.19387156005321
6.83,-0.11628482998952759,74.21753210229484
6.84,-0.11886045788921361,73.48505899074469
6.85,-0.12281929336465691,72.69140077441112
6.86,-0.12358244237197129,72.78317843158626
6.87,-0.12572879895504296,72.72199332680283
6.88,-0.12816133641585753,72.66080822201941
6.89,-0.12849521410655756,72.32516421863605
6.9,-0.1305938738766721,72.32516421863605
6.91,-0.13669906593518708,72.6302156696277
6.92,-0.13884542251825874,73.57683664791983
6.93,-0.13688985318701566,73.51565154313641
6.94,-0.13488658704281545,73.48505899074469
6.95,-0.13488658704281545,73.42387388596127
6.96,-0.13641288505744417,79.80198402317062
6.97,-0.13884542251825874,79.74079891838718
6.98,-0.14070559822358752,79.3754364355376
6.99,-0.13994244921627316,78.61237077159574
7.0,-0.13946548108670168,78.30731932060408
7.01,-0.14161183766977334,77.84930510765388
7.02,-0.14084868866245898,77.11683199610373
7.03,-0.13045078343780064,76.6282252307618
7.04,-0.10407444587249763,75.92634467160336
7.05,-0.08146615653080932,74.95000521384499
7.06,-0.06668014451409335,74.70613886763677
7.07,-0.021654353082545336,73.85129554651976
7.08,0.019984964629045143,73.18000753975305
7.09,0.014022863009401604,73.11882243496962
7.1,-0.024706949111802826,72.75258587919456
7.11,-0.08451875256006681,71.89861663100302
7.12,-0.13274023045974376,71.53238007522795
7.13,-0.1545853707941177,70.73872185889438
7.14,-0.1641724301985045,70.43367040790272
7.15,-0.17166082983277678,69.91447109016909
7.16,-0.1756196653082201,69.21259053101066
7.17,-0.2038561785788519,68.60248762902737
7.18,-0.3215242161441368,68.75457631806044
7.19,-0.18616066097174988,67.93119962226064
7.2,0.8195266402297223,67.56496306648556
7.21,2.147978274712217,67.07635630114363
7.22,1.9297653554332637,67.13754140592707
7.23,0.32347978547537987,66.71011974536856
7.24,-0.42908052936250624,66.40506829437692
7.25,-0.1677019943573335,65.97764663381842
7.26,-0.022894470219431192,65.5196324208682
7.27,-0.08013064576800917,65.48991394140197
7.28,-0.10331129686518326,65.55022497325992
7.29,-0.09353345020896785,65.06249228084347
7.3,-0.08790522628002435,64.90952951888491
7.31,-0.08299245454543808,64.6962557250684
7.32,-0.07049588955066521,64.8789369664932
7.33,-0.050654015360491515,64.29942661690161
7.34,-0.025470098119117202,64.57388551550154
7.35,0.0036726545977004204,64.36061172168503
7.36,0.034627886206889676,64.42179682646847
7.37,0.07230836844303684,64.29942661690161
7.38,0.1246794690699857,63.93319006112654
7.39,0.18859319843256445,63.99437516590996
7.4,0.26304792345867295,64.05556027069339
7.41,0.33936282419011027,63.44458329578461
7.42,0.4046597611284463,63.53636095295975
7.43,0.45335820715769476,63.566953505351464
7.44,0.4815470236153694,63.17012439718467
7.45,0.4690504586205965,63.13953184479296
7.46,0.39550197304067386,63.20071694957639
7.47,0.27387509999994564,63.078346740009536
7.48,0.15029265762797434,64.08527875015962
7.49,0.04850765877741984,65.64200263043506
7.5,-0.03219534874607512,65.64200263043506
7.51,-0.0906239446185818,65.55022497325992
7.52,-0.12677812884010023,71.53238007522795
7.53,-0.14647691259140247,80.10703547416226
7.54,-0.15792414770111807,90.81879917588907
7.55,-0.17242397884009117,99.54729140970743
7.56,-0.18296497450362095,99.57788396209914
7.57,-0.1893563474398788,99.57788396209914
7.58,-0.19651086938345105,103.54530097084152
7.59,-0.19317209247645067,102.1712583319909
7.6,-0.18477745339599258,100.27976452125758
7.61,-0.18220182549630656,98.75363319337386
7.62,-0.18325115538136383,96.46443620154827
7.63,-0.18372812351093532,93.77928417448138
7.64,-0.18096170835942071,91.15444317927243
7.65,-0.1791492294670491,88.65197239363034
7.66,-0.17547657486934864,86.33305692233853
7.67,-0.17013453181814805,84.22741524486322
7.68,-0.17061149994771954,82.64009881219607
7.69,-0.179769288035492,80.90069369049584
7.7,-0.18616066097174988,79.92435423273747
7.71,-0.18907016656213593,79.06951091162047
7.72,-0.19135961358407905,78.27672676821237
7.73,-0.1928859115987078,77.39129089470366
7.74,-0.19651086938345105,76.32317377977016
7.75,-0.20232988056422316,75.3774268744035
7.76,-0.2094844025077954,74.30930975946998
7.77,-0.21406329655168163,73.48505899074469
7.78,-0.21287087622775294,72.69140077441112
7.79,-0.21558959456631038,71.89861663100302
7.8,-0.21883297784739647,71.62328365947761
7.81,-0.2186421905955679,71.07436586227774
7.82,-0.21682971170319626,71.19586199891911
7.83,-0.21821291927895356,71.19586199891911
7.84,-0.22064545673976813,71.16614351945287
7.85,-0.21711589258093913,71.47119497044453
7.86,-0.20905513119118108,72.35575677102776
7.87,-0.19531844905952236,73.02704477779449
7.88,-0.17576275574709155,73.14941498736134
7.89,-0.1615968022988185,72.96673374593654
7.9,-0.1356497360501298,73.0882298825779
7.91,-0.0875713485893243,73.02704477779449
7.92,-0.06424760705327878,78.76445946062881
7.93,-0.08680819958200994,78.15435655864552
7.94,-0.13746221494250144,77.9104902124373
7.95,-0.19608159806683673,77.36069834231195
7.96,-0.2351452878787412,77.14742454849544
7.97,-0.24916815088814281,76.59763267837009
7.98,-0.25422401306160053,75.89575211921165
7.99,-0.2571335186519866,74.88882010906157
8.0,-0.25789666765930097,74.27871720707827
8.01,-0.2980096873562627,73.39328133356956
8.02,-0.4038966121211319,73.11882243496962
8.03,-0.17380718641584847,72.35575677102776
8.04,0.974732069592283,71.5926911070859
8.05,2.1769779369901636,71.13555096706116
8.06,1.5631199542316647,70.3418927507276
8.07,-0.029285843155689065,69.85328598538567
8.08,-0.4864597953499557,69.57882708678574
8.09,-0.2010897634273373,69.0596277690521
8.1,-0.10545765344825493,68.32802873042742
8.11,-0.14495061457677375,67.87001451747722
8.12,-0.1571609986938037,67.56496306648556
8.13,-0.14557067314521666,67.47318540931043
8.14,-0.1370329436258871,67.2293190631022
8.15,-0.12420250094041421,66.74071229776028
8.16,-0.1017849988505545,66.46625339916034
8.17,-0.07917670950886621,65.91646152903499
8.18,-0.056282239289435015,66.03883173860184
8.19,-0.031289109299889296,65.55022497325992
8.2,0.001049329885057263,65.58081752565163
8.21,0.04454882330197653,65.18398841748484
8.22,0.10068797215254009,64.84834441410148
8.23,0.17547657486934864,64.78803338224354
8.24,0.2581828485370438,64.78803338224354
8.25,0.32624620062689447,64.33001916929332
8.26,0.3834346793625153,64.51270041071812
8.27,0.4308930082548779,63.90259750873482
8.28,0.44830234498423704,64.11587130255134
8.29,0.4063291495819465,63.44458329578461
8.3,0.3056411774294064,64.05556027069339
8.31,0.18034164979097778,64.33001916929332
8.32,0.06119501102402129,64.84834441410148
8.33,-0.03386473719957531,68.6942652862025
8.34,-0.10545765344825493,68.81576142284388
8.35,-0.15425149310341765,68.72398376566873
8.36,-0.18110479879829217,68.72398376566873
8.37,-0.1957477203761367,68.78516887045215
8.38,-0.2052393861546092,68.78516887045215
8.39,-0.21592347225701042,68.75457631806044
8.4,-0.2250812603447829,76.23139612259502
8.41,-0.23042330339598352,86.2718718175551
8.42,-0.2320926918494837,95.97670350913182
8.43,-0.22570131891322584,102.72105020211625
8.44,-0.21759286071051062,98.35680408520706
8.45,-0.2127277857888815,95.9155184043484
8.46,-0.20891204075230962,93.47423272348973
8.47,-0.20690877460810939,91.06353959502277
8.48,-0.20476241802503772,88.25601735838903
8.49,-0.20204369968648025,85.87504270938831
8.5,-0.1985141355276513,83.92236379387157
8.51,-0.19455530005220797,82.18295867217134
8.52,-0.19469839049107943,80.56504968711248
8.53,-0.20232988056422316,79.3754364355376
8.54,-0.20705186504698084,78.27672676821237
8.55,-0.20566865747122354,77.08623944371202
8.56,-0.20614562560079502,76.29258122737843
8.57,-0.21010446107623834,74.98059776623671
8.58,-0.21043833876693838,74.33990231186169
8.59,-0.20643180647853793,73.02704477779449
8.6,-0.20204369968648025,72.41694187581119
8.61,-0.1998973431034086,71.44060241805282
8.62,-0.2015667315569088,70.86021799553575
8.63,-0.2043331467084234,69.88387853777738
8.64,-0.20280684869379464,69.91447109016909
8.65,-0.2021867901253517,69.85328598538567
8.66,-0.20585944472305212,70.03684129973594
8.67,-0.20934131206892395,69.85328598538567
8.68,-0.20676568416923796,70.00624874734423
8.69,-0.2021867901253517,70.3418927507276
8.7,-0.2024729710030946,70.89081054792747
8.71,-0.20690877460810939,71.89861663100302
8.72,-0.2043331467084234,71.98952021525268
8.73,-0.18358503307206386,71.86802407861131
8.74,-0.15668403056423222,71.98952021525268
8.75,-0.13994244921627316,71.89861663100302
8.76,-0.10984576024031258,77.941082764829
8.77,-0.06730020308253627,77.54425365666222
8.78,-0.05218031337512026,77.08623944371202
8.79,-0.06925577241377935,76.2008035702033
8.8,-0.1090826112329982,75.80484853496199
8.81,-0.167225026227762,74.98059776623671
8.82,-0.2085781630616096,74.27871720707827
8.83,-0.22217175475439685,73.42387388596127
8.84,-0.22474738265408287,73.14941498736134
8.85,-0.22613059022984017,72.32516421863605
8.86,-0.22779997868334037,71.56209855469419
8.87,-0.281077318756475,71.50178752283624
8.88,-0.3909230789967876,71.56209855469419
8.89,-0.11366150527688444,70.67753675411096
8.9,1.067645461232808,70.3418927507276
8.91,2.1539403763318608,70.00624874734423
8.92,1.443639437774008,69.5176419820023
8.93,-0.050224744043877174,67.93119962226064
8.94,-0.43012985924756353,67.65586665073522
8.95,-0.17075459038659097,67.47318540931043
8.96,-0.09858931238242558,67.28963009496015
8.97,-0.14356740700101644,66.8018974025437
8.98,-0.15215283333330312,66.43566084676863
8.99,-0.131213932445115,65.97764663381842
9.0,-0.11442465428419882,65.70318773521848
9.01,-0.10025870083592577,65.5196324208682
9.02,-0.08318324179726666,65.3063586270517
9.03,-0.06668014451409335,64.84834441410148
9.04,-0.04349949341691926,64.8789369664932
9.05,-0.01249656499477286,64.39120427407674
9.06,0.022751379780559747,64.57388551550154
9.07,0.0648676656217217,63.93319006112654
9.08,0.12100681447228528,64.11587130255134
9.09,0.19045337413789323,63.566953505351464
9.1,0.25789666765930097,63.68932371491831
9.11,0.3238136631660799,63.2313095019681
9.12,0.38939678098215885,63.292494606751525
9.13,0.43241930626950664,62.71211018423446
9.14,0.44448659994766515,62.74270273662618
9.15,0.40527981969688925,62.68151763184275
9.16,0.3062612359978493,63.2313095019681
9.17,0.18310806494249238,63.566953505351464
9.18,0.07507478359455146,65.64200263043506
9.19,-0.010827176541272668,65.5196324208682
9.2,-0.07903361906999476,65.64200263043506
9.21,-0.12496564994772859,65.55022497325992
9.22,-0.15119889707416018,71.86802407861131
9.23,-0.1699914413792766,81.26693024627092
9.24,-0.1770028728839774,91.88691629082258
9.25,-0.18234491593517801,100.64600107703265
9.26,-0.18997640600832175,100.73690466128231
9.27,-0.1887362888714359,102.26303598916603
9.28,-0.1814386764889922,100.70718618181607
9.29,-0.17685978244510595,99.51669885731572
9.3,-0.1742364577324628,97.5937384212652
9.31,-0.17762293145242034,95.39631908661477
9.32,-0.17533348443047722,92.83353726911471
9.33,-0.16846514336464785,90.2698813786892
9.34,-0.16569872821313325,87.55413679923059
9.35,-0.16221686086726142,85.17316215022987
9.36,-0.16464939832807599,83.15929812992971
9.37,-0.17166082983277678,82.94515026318771
9.38,-0.17213779796234827,81.41989300822948
9.39,-0.17485651630090573,80.07731699469603
9.4,-0.1786722613374776,79.52752512457069
9.41,-0.17852917089860615,78.24613421582066
9.42,-0.17881535177634905,77.54425365666222
9.43,-0.18081861792054926,76.53644757358666
9.44,-0.1820587350574351,75.52951556343658
9.45,-0.1826310968129209,74.5531761056782
9.46,-0.18587448009400698,73.57683664791983
9.47,-0.18830701755482154,72.72199332680283
9.48,-0.18678071954019282,71.5926911070859
9.49,-0.1887362888714359,71.19586199891911
9.5,-0.19484148092995088,70.3418927507276
9.51,-0.19727401839076544,70.25011509355245
9.52,-0.19636777894457963,70.40307785551101
9.53,-0.1968447470741511,70.28070764594416
9.54,-0.19422142236150794,70.31130019833589
9.55,-0.1926951243468792,70.67753675411096
9.56,-0.19422142236150794,71.62328365947761
9.57,-0.1937921510448936,71.62328365947761
9.58,-0.1940783319226365,71.62328365947761
9.59,-0.18768695898637863,78.18494911103724
9.6,-0.15701790825493225,78.30731932060408
9.61,-0.1305938738766721,77.81871255526217
9.62,-0.11490162241377029,77.57484620905393
9.63,-0.07598102304073727,77.20860965327886
9.64,-0.046695179885048205,76.72000288793694
9.65,-0.057379265987449427,75.83456701442823
9.66,-0.0917209713165962,75.46833045865316
9.67,-0.14390128469171648,74.5225835532865
9.68,-0.1887362888714359,74.24812465468656
9.69,-0.20891204075230962,73.45446643835298
9.7,-0.21468335512012457,72.84436353636968
9.71,-0.21744977027163917,71.53238007522795
9.72,-0.21406329655168163,71.19586199891911
9.73,-0.236051527324927,70.76931441128609
9.74,-0.3456111066874967,70.00624874734423
9.75,-0.22264872288396834,69.45645687721888
9.76,0.729999722309155,69.15140542622723
9.77,1.9810394293621982,68.57189507663564
9.78,1.749709886520029,68.4495248670688
9.79,0.27420897769064567,67.87001451747722
9.8,-0.39917462763837425,67.53437051409385
9.81,-0.1937921510448936,67.10694885353536
9.82,-0.06806335208985065,66.83248995493541
9.83,-0.10526686619642633,66.31329063720177
9.84,-0.12176996347959965,66.40506829437692
9.85,-0.10588692476486926,65.91646152903499
9.86,-0.09443968965515366,66.03883173860184
9.87,-0.08375560355275244,66.00823918621013
9.88,-0.06257821859977859,66.1612019481687
9.89,-0.0383005408045901,65.5196324208682
9.9,-0.015406070585158907,65.61141007804335
9.91,0.01192420323928708,65.15339586509313
9.92,0.04197319540229052,64.84834441410148
9.93,0.08027373620688062,64.29942661690161
9.94,0.12925836311387193,64.08527875015962
9.95,0.1887362888714359,63.93319006112654
9.96,0.25880290710548676,63.62813861013489
9.97,0.3271524400730803,63.53636095295975
9.98,0.3907799885579162,63.6587311625266
9.99,0.44129091347953625,63.17012439718467
