time_s,ECG1,ECG2,NIBP
0.0,-0.0834113994982789,-0.05694810691259719,84.93332286037133
0.01,-0.09965241409566605,-0.09168597397557104,84.70898256842196
0.02,-0.0689170600557051,-0.04131248058143071,84.57404103942986
0.03,-0.09211413184857692,-0.08764557512241028,84.5071325313046
0.04,-0.0567209773957804,-0.03959112722387109,84.40592638456053
0.05,-0.09036745669376359,-0.07779560868748583,84.2378117296912
0.06,-0.05846765255059373,-0.016424579953381306,84.0916250732831
0.07,-0.0834113994982789,-0.06101241345127961,83.90102016358175
0.08,-0.04918269514869127,-0.001960430212776226,83.6991701264644
0.09,-0.06542370974607842,-0.03437925178014893,83.441094452267
0.1,-0.016700665953916973,0.01946085601463229,83.0593223764935
0.11,-0.031225648820259442,0.0009323997353447903,82.70060281192282
0.12,0.04014288513693805,0.06926056495625275,82.49875277480547
0.13,0.047681167384027175,0.061155859564409575,82.53248815705349
0.14,0.13409562241163428,0.14626722002152376,83.02614925061627
0.15,0.1399178729276787,0.12773876374223628,84.6190215490939
0.16,0.20834463820308533,0.20070501995434653,87.34540269110518
0.17,0.18631201651342238,0.1561171864564482,90.62167056375928
0.18,0.2019708060592051,0.18738843911878117,93.69608839929603
0.19,0.10743584373290442,0.08953428227862152,96.08624023156867
0.2,0.05463722457951186,0.06811299605121302,97.56722351225699
0.21,-0.039346156118953014,-0.020488886492063724,98.38643104451322
0.22,-0.052676045458317944,-0.008319874561538128,98.66699697354264
0.23,-0.11822232889947099,-0.07026468774816252,98.52081031713452
0.24,-0.08806919991111446,-0.03669829727575008,98.01590409615574
0.25,-0.13621001865167146,-0.08128613077364838,97.35412834772363
0.26,-0.10198131430208383,-0.04248395717199211,96.6586172170435
0.27,-0.13562779360006702,-0.08996462061801143,95.90688044928332
0.28,-0.10489243956010606,-0.05580053800755745,95.15514368152314
0.29,-0.1379566938064848,-0.0841789607217694,94.51529593155226
0.3,-0.10660847129115074,-0.06101241345127961,94.03287996540548
0.31,-0.13096999318723146,-0.07315751769628355,93.68484327188003
0.32,-0.08574029970469668,-0.030314945241466513,93.46050297993065
0.33,-0.12226726083693344,-0.07086237988620406,93.28114319764532
0.34,-0.07936646756081644,-0.03263399073706766,93.17993705090124
0.35,-0.10893737149756852,-0.05637432246007732,93.10178341535998
0.36,-0.06658815984928732,-0.022210239849623337,92.8549528685786
0.37,-0.09153190679697248,-0.045950571572633,92.46193566538909
0.38,-0.051511595355109054,-0.011212704509659145,92.02450020890636
0.39,-0.08978523164215914,-0.04422921821507338,91.49710373309556
0.4,-0.04918269514869127,-0.014679318910300032,90.85781823949546
0.41,-0.09094968174536804,-0.0471220481631944,90.2404607443566
0.42,-0.05500494566473572,-0.01989119435402219,90.01612045240722
0.43,-0.0845758496014878,-0.04884340152075401,90.3748400169779
0.44,-0.0689170600557051,-0.026848330840825628,90.7678572201674
0.45,-0.10489243956010606,-0.023955500892704613,91.0371780217808
0.46,-0.0631254529634293,0.03626795893636017,91.20529267665013
0.47,-0.09327858195178582,0.00557049072654708,91.27276344114618
0.48,-0.013237959068058958,0.05883681406880843,91.38465245893546
0.49,-0.06833483500410065,0.017165718204552805,91.53083911534358
0.5,-0.037017255912535234,0.046691709823804495,91.62080013467164
0.51,-0.053840495561526834,0.012527627213350516,91.59830987983963
0.52,-0.014984634222872294,0.022377593648274966,91.55332937017559
0.53,-0.08108249929186112,-0.03901734277135122,91.36272446047425
0.54,-0.049764920200295715,-0.030912637379508046,91.09340365886085
0.55,-0.08108249929186112,-0.03901734277135122,90.79034747499941
0.56,-0.03468835570611746,-0.026848330840825628,90.44231078147395
0.57,-0.07703756735439866,-0.05580053800755745,90.02736557982323
0.58,-0.11472897858984431,-0.1426571595077529,89.6011752507565
0.59,-0.03585280580932635,-0.03263399073706766,89.15193241048696
0.6,0.8064123398959249,0.6650639958415737,88.74823233625226
0.61,1.1869117328313141,0.7461110497600055,88.40019564272679
0.62,0.17819150921472882,0.1346959002290397,88.18710047819343
0.63,-0.11414675353823986,-0.025103069797744352,87.92902480399603
0.64,-0.037017255912535234,-0.026848330840825628,87.6259686201346
0.65,-0.0689170600557051,-0.05462906141699605,87.35664781852118
0.66,-0.03468835570611746,-0.03612451282323021,87.06539901844657
0.67,-0.06542370974607842,-0.055226753555037575,86.77358796200114
0.68,-0.03006119871705055,-0.03901734277135122,86.49302203297172
0.69,-0.07529089219958533,-0.049441093658795544,86.3243451217316
0.7,-0.03294168055130412,-0.026848330840825628,86.31366225068639
0.71,-0.07820201745760755,-0.04480300266759325,86.24619148619034
0.72,-0.02598562335581944,-0.015850795500861433,86.066831703905
0.73,-0.06428990306663819,-0.02278402430214321,85.81943890075281
0.74,-0.02077624131514809,0.0009323997353447903,85.58385348138744
0.75,-0.0567209773957804,-0.008893659014058,85.38200344427008
0.76,-0.00686412692417872,0.011953842760830644,85.16890827973671
0.77,-0.03294168055130412,0.020632332605193694,84.89958747812331
0.78,0.03781398493052027,0.055370199668167544,84.56279591201385
0.79,0.03144015278664003,0.06868678050373288,84.31596536523246
0.8,0.11785460781424711,0.1225268882985141,84.32721049264848
0.81,0.11613857608320244,0.14222682116836302,84.84336184104326
0.82,0.19792587412174262,0.179283733726938,86.30241712327039
0.83,0.1741159338534977,0.1856431780756999,88.84943848299633
0.84,0.21067353840950312,0.18738843911878117,91.99076482665834
0.85,0.12076573307226934,0.13412211577651983,94.86333262507773
0.86,0.07958097152719702,0.07215339490437377,97.00609165419816
0.87,-0.028314523562237216,0.012527627213350516,98.33020540743318
0.88,-0.038181706015744124,-0.023955500892704613,99.0144714106973
0.89,-0.11531120364144876,-0.04537678712011313,99.2613019574787
0.9,-0.09327858195178582,-0.06101241345127961,99.11567755744137
0.91,-0.1425838507955517,-0.06505281230444036,98.66699697354264
0.92,-0.09848796399245716,-0.06333145894688075,98.02714922357174
0.93,-0.14607720110517838,-0.06969090329564266,97.39910885738766
0.94,-0.1158934286930532,-0.07722182423496596,96.72552572516875
0.95,-0.1617359906509611,-0.08532652962680914,96.08624023156867
0.96,-0.11822232889947099,-0.08128613077364838,95.4801278638458
0.97,-0.15419770840387195,-0.08068843863560685,94.91899600578697
0.98,-0.10602624623954629,-0.07547656319188469,94.53778618638428
0.99,-0.1437483008987606,-0.06333145894688075,94.32469102185091
1.0,-0.09269635690018137,-0.057545799050638724,94.25722025735486
1.01,-0.13446334349685812,-0.05058866256383529,94.21223974769083
1.02,-0.0834113994982789,-0.0471220481631944,94.0553702202375
1.03,-0.11880455395107542,-0.04480300266759325,93.69608839929603
1.04,-0.07296199199316755,-0.04363152607703185,93.20242730573325
1.05,-0.11414675353823986,-0.04537678712011313,92.63061257662922
1.06,-0.07182818531372731,-0.04248395717199211,91.94578431699429
1.07,-0.11359517191040408,-0.04652435602515287,91.26151831373018
1.08,-0.078784242509212,-0.05233392360691656,90.59974256529807
1.09,-0.12343171094014233,-0.05058866256383529,90.13925459761252
1.1,-0.07703756735439866,-0.050014878111315414,89.94864968791117
1.11,-0.1338811184452537,-0.045950571572633,90.01612045240722
1.12,-0.0956074821582036,-0.025103069797744352,90.6554059460073
1.13,-0.13621001865167146,0.0038491373689874676,91.38465245893546
1.14,-0.08166472434346557,-0.006000829065936983,91.76642453470896
1.15,-0.07587311725118977,0.02931082244955674,91.87831355249824
1.16,-0.04571998826283326,0.01020858171774937,91.95702944441031
1.17,-0.10081686419887494,0.017165718204552805,92.0807258459864
1.18,-0.051511595355109054,0.002677660778426064,92.15887948152766
1.19,-0.09153190679697248,-0.011212704509659145,92.03574533632236
1.2,-0.07182818531372731,-0.05173623146887503,91.74393427987694
1.21,-0.12171567920909765,-0.057545799050638724,91.4296329685995
1.22,-0.07761979240600311,-0.06969090329564266,91.0371780217808
1.23,-0.1112662717039863,-0.05694810691259719,90.53227180080202
1.24,-0.06949928510730953,-0.07375520983432508,90.00487532499122
1.25,-0.17564810504193046,-0.19128539185881197,89.6011752507565
1.26,-0.019029566160334754,-0.04884340152075401,89.208158047567
1.27,0.7849312998340977,0.7119469671495515,88.79321284591629
1.28,1.2101394480479546,0.8219701359202368,88.27706149752149
1.29,0.05638389973432519,0.1717528127876147,87.83962604103876
1.3,-0.09327858195178582,-0.007746090109018258,87.58155036684136
1.31,-0.09036745669376359,-0.05926715240819833,87.28973931039593
1.32,-0.06021432770540707,-0.0905384050705313,86.95294774428648
1.33,-0.09790573894085272,-0.0766480397824461,86.67238181525707
1.34,-0.0631254529634293,-0.09228366611361258,86.582420795929
1.35,-0.10139908925047939,-0.07490277873936482,86.593665923345
1.36,-0.05500494566473572,-0.08011465418308698,86.60491105076102
1.37,-0.09036745669376359,-0.06737185780004151,86.48177690555572
1.38,-0.053840495561526834,-0.07836939314000571,86.25743661360634
1.39,-0.09036745669376359,-0.05233392360691656,86.066831703905
1.4,-0.048600470097086824,-0.0656505044424819,85.89815479266487
1.41,-0.0845758496014878,-0.04248395717199211,85.66256937329949
1.42,-0.03876393106734857,-0.050014878111315414,85.37075831685407
1.43,-0.06542370974607842,-0.02338171644018474,85.07894726040864
1.44,-0.005699676820969829,-0.025103069797744352,84.765208205502
1.45,-0.014402409171267849,0.012527627213350516,84.54086791355263
1.46,0.06392218198141432,0.028163253544517,84.52962278613663
1.47,0.07841652142398814,0.0791105313911772,84.98954849745138
1.48,0.17065322696763968,0.10227707866166699,86.3355902491476
1.49,0.18168485952435548,0.1532243565083272,88.88261160887356
1.5,0.24723114296550852,0.15265057205580734,92.11446122823442
1.51,0.20022413090439176,0.16654093734389253,95.18831680740037
1.52,0.18281866620379572,0.10748895410538915,97.55597838484098
1.53,0.06508663208462322,0.05768924516376869,99.04820679294532
1.54,0.025648545694364235,-0.011786488962179015,99.87865945261755
1.55,-0.0619610028602204,-0.029167376336426774,100.13673512681495
1.56,-0.06021432770540707,-0.07026468774816252,99.96805821557483
1.57,-0.11938677900267987,-0.06333145894688075,99.62058377842017
1.58,-0.09677193226141248,-0.08821935957493016,99.17190319452142
1.59,-0.1379566938064848,-0.07375520983432508,98.58828108163057
1.6,-0.10431021450850161,-0.09517649606173359,97.92650533319846
1.61,-0.14316607584715615,-0.07779560868748583,97.3091478380596
1.62,-0.10372798945689717,-0.10096215595797563,96.81548674449682
1.63,-0.13679224370327592,-0.08243369967868812,96.56865619771543
1.64,-0.09677193226141248,-0.10038837150545575,96.45620492355535
1.65,-0.12983618650779122,-0.07779560868748583,96.3892964154301
1.66,-0.08923365001432336,-0.09749554155733474,96.28809026868602
1.67,-0.11822232889947099,-0.07026468774816252,96.19812924935795
1.68,-0.07820201745760755,-0.08707179066989042,96.19812924935795
1.69,-0.11414675353823986,-0.0656505044424819,96.16495612348072
1.7,-0.07761979240600311,-0.08068843863560685,95.94005357516055
1.71,-0.1101018216007774,-0.057545799050638724,95.41265709934974
1.72,-0.07066373521051843,-0.07490277873936482,94.11159585731755
1.73,-0.10372798945689717,-0.055226753555037575,92.7425015944185
1.74,-0.07645534230279422,-0.07954086973056711,91.78891478954098
1.75,-0.10719069634275519,-0.05694810691259719,91.11589391369286
1.76,-0.07761979240600311,-0.07896708527804724,90.59974256529807
1.77,-0.10660847129115074,-0.06215998235631935,90.2517058717726
1.78,-0.07470866714798088,-0.07954086973056711,90.22921561694058
1.79,-0.10602624623954629,-0.060438628998759736,90.33042176368465
1.8,-0.08108249929186112,-0.07779560868748583,90.47604616372197
1.81,-0.12284948588853789,-0.058119583503158594,90.6441608185913
1.82,-0.09386080700339025,-0.05290770805943643,90.79034747499941
1.83,-0.10835514644596407,0.006741967317108483,90.89099136537268
1.84,-0.08053091766402533,-0.03380546732762906,90.98095238470076
1.85,-0.06254322791182484,0.02527042359639598,91.01468776694878
1.86,-0.04688443836604215,-0.011212704509659145,91.02593289436479
1.87,-0.09036745669376359,0.011356150622789113,90.95846212986874
1.88,-0.053258270509922385,-0.01989119435402219,90.75661209275138
1.89,-0.08282917444667445,-0.020488886492063724,90.47604616372197
1.9,-0.06949928510730953,-0.07432899428684495,90.1280094701965
1.91,-0.11184849675559073,-0.07026468774816252,89.7243093959618
1.92,-0.07182818531372731,-0.09632406496677333,89.30936419431109
1.93,-0.09735415731301693,-0.06969090329564266,88.95008237336961
1.94,-0.07412644209637644,-0.1090668613498188,88.64702618950817
1.95,-0.16985649794965466,-0.21385424699126024,88.27706149752149
1.96,0.0395606600853336,-0.007746090109018258,87.90653454916401
1.97,0.8858707377280474,0.7849132233616618,87.5028344749293
1.98,1.0970039274940802,0.8283295802689987,87.2335136733159
1.99,-0.00453522671776094,0.14626722002152376,86.93045748945445
2.0,-0.08515807465309223,-0.023955500892704613,86.582420795929
2.01,-0.07470866714798088,-0.06969090329564266,86.24619148619034
2.02,-0.05904987760219818,-0.11021443025485854,86.02185119424097
2.03,-0.09211413184857692,-0.08821935957493016,85.79751090229159
2.04,-0.06254322791182484,-0.11253347575045969,85.6738145007155
2.05,-0.08690474980790558,-0.07896708527804724,85.58385348138744
2.06,-0.055587170716340166,-0.10442877035861652,85.39324857168609
2.07,-0.08166472434346557,-0.06796954993808305,85.20264366198474
2.08,-0.048600470097086824,-0.09517649606173359,85.0232838796994
2.09,-0.07241041036533176,-0.05869336795567846,84.80962645879524
2.1,-0.04222663795320659,-0.08243369967868812,84.56279591201385
2.11,-0.07008151015891398,-0.04537678712011313,84.33845562006448
2.12,-0.03759948096413968,-0.07086237988620406,84.0916250732831
2.13,-0.052093820406713495,-0.02799589974586537,83.8447945265017
2.14,0.0007047987466790649,-0.03784586618078982,83.5754737248883
2.15,0.00300305552932819,0.01542045716147153,83.36237856035493
2.16,0.06854933897048122,0.014248980570910128,83.47482983451502
2.17,0.10219581826846441,0.08721523678302039,84.19283122002717
2.18,0.18052040942114658,0.08546997573993911,85.99936093940894
2.19,0.19385029876051152,0.14858626551712492,89.00630801044964
2.2,0.24723114296550852,0.13237685473343855,92.30506613793577
2.21,0.20892686325468976,0.16015758530960897,95.23329731706441
2.22,0.17760928416312435,0.08546997573993911,97.33163809289161
2.23,0.0662510821878321,0.05362493862508627,98.49832006230251
2.24,0.029111252580222246,-0.026848330840825628,99.02571653811331
2.25,-0.05034714525190016,-0.03320777518958753,99.09318730260937
2.26,-0.0631254529634293,-0.08475274517428927,98.93631777515604
2.27,-0.1101018216007774,-0.06969090329564266,98.50956518971851
2.28,-0.08748697485951001,-0.10385498590609664,97.93718820424368
2.29,-0.11996900405428432,-0.07722182423496596,97.34288322030763
2.3,-0.09386080700339025,-0.10964064580233868,96.70303547033673
2.31,-0.12401393599174677,-0.07547656319188469,96.08624023156867
2.32,-0.0956074821582036,-0.10964064580233868,95.63755964766992
2.33,-0.12226726083693344,-0.07779560868748583,95.35699371864051
2.34,-0.08515807465309223,-0.10442877035861652,95.21080706223239
2.35,-0.12171567920909765,-0.08011465418308698,95.16582655256836
2.36,-0.08690474980790558,-0.11774535119418185,95.17707167998437
2.37,-0.11184849675559073,-0.07315751769628355,95.2220521896484
2.38,-0.08053091766402533,-0.10153594041049549,95.17707167998437
2.39,-0.1054746646117105,-0.06215998235631935,95.04269240736306
2.4,-0.073544217044772,-0.0968978494192932,94.77337160574966
2.41,-0.10081686419887494,-0.06158619790379948,94.21223974769083
2.42,-0.06949928510730953,-0.08939083616549157,93.46050297993065
2.43,-0.10139908925047939,-0.05637432246007732,92.64129544767442
2.44,-0.08108249929186112,-0.09632406496677333,91.77766966212496
2.45,-0.09965241409566605,-0.05462906141699605,91.09340365886085
2.46,-0.07412644209637644,-0.08821935957493016,90.54351692821803
2.47,-0.10777292139435962,-0.05694810691259719,90.16174485244453
2.48,-0.06949928510730953,-0.08647409853184888,90.02736557982323
2.49,-0.1101018216007774,-0.04884340152075401,90.00487532499122
2.5,-0.08053091766402533,-0.06737185780004151,90.09483634431928
2.51,-0.1101018216007774,0.0009323997353447903,90.2629509991886
2.52,-0.06949928510730953,-0.03612451282323021,90.45355590888995
2.53,-0.051511595355109054,0.026417992501435724,90.6554059460073
2.54,-0.03177723044809523,-0.008319874561538128,90.7791023475834
2.55,-0.07761979240600311,0.022951378100794836,90.86906336691148
2.56,-0.053840495561526834,-0.03380546732762906,90.9022364927887
2.57,-0.07296199199316755,-0.0007889536222148225,90.83532798466345
2.58,-0.0689170600557051,-0.08128613077364838,90.6441608185913
2.59,-0.1101018216007774,-0.06737185780004151,90.33042176368465
2.6,-0.078784242509212,-0.1027074170010569,89.97113994274319
2.61,-0.10660847129115074,-0.06390524339940062,89.54494961367647
2.62,-0.078784242509212,-0.11602399783662223,89.12944215565494
2.63,-0.1158934286930532,-0.1154263056985807,88.66951644434019
2.64,-0.14433052595036505,-0.2387660553048313,88.19834560560943
2.65,0.3179868084473329,0.3118757576300715,87.81713578620673
2.66,1.1811201257390382,0.844538991052685,87.48034422009728
2.67,0.5732158850164604,0.6013739216118681,87.1098172717398
2.68,-0.08399362454988335,-0.01410553445778016,86.79607821683315
2.69,-0.1101018216007774,-0.04016491167639097,86.48177690555572
2.7,-0.06021432770540707,-0.11081212239290007,86.22370123135832
2.71,-0.09386080700339025,-0.0644790278519205,86.04434144907299
2.72,-0.0631254529634293,-0.11774535119418185,85.78626577487559
2.73,-0.09735415731301693,-0.06333145894688075,85.53943522809419
2.74,-0.06254322791182484,-0.10442877035861652,85.29260468131281
2.75,-0.09677193226141248,-0.05290770805943643,85.03452900711541
2.76,-0.07066373521051843,-0.10442877035861652,84.84336184104326
2.77,-0.09153190679697248,-0.045950571572633,84.68649231358995
2.78,-0.06254322791182484,-0.08068843863560685,84.55211304096865
2.79,-0.09790573894085272,-0.027422115293345498,84.46215202164058
2.8,-0.07008151015891398,-0.0720099487912438,84.28279223935523
2.81,-0.07470866714798088,-0.0007889536222148225,83.9684909280778
2.82,-0.04222663795320659,-0.049441093658795544,83.66543474421637
2.83,-0.052093820406713495,0.02527042359639598,83.29547005222969
2.84,0.008243080993768194,0.0032514452309459355,83.09305775874152
2.85,0.019244070126715338,0.08315093024433796,83.21675416031762
2.86,0.09698643622779307,0.0715796104518539,83.9684909280778
2.87,0.12367685833029157,0.15726475536148796,85.95438042974492
2.88,0.18168485952435548,0.12831254819475613,89.02879826528167
2.89,0.158457144307715,0.19432166792006295,92.42820028314107
2.9,0.1625327196689461,0.12195310384599424,95.16582655256836
2.91,0.06796711391887679,0.11788879730731182,97.21918681873153
2.92,0.0018386054261192999,-0.0036817835703358386,98.4870749348865
2.93,-0.07761979240600311,0.014248980570910128,99.03696166552932
2.94,-0.10372798945689717,-0.07086237988620406,99.11567755744137
2.95,-0.1547799334554764,-0.03206020628454779,98.84635675582797
2.96,-0.14083717564073836,-0.10038837150545575,98.26273464293712
2.97,-0.17564810504193046,-0.0534814925119563,97.55597838484098
2.98,-0.1594070904445433,-0.10617403140169779,96.89420263640888
2.99,-0.17855923029995266,-0.055226753555037575,96.24310975902198
3.0,-0.15707819023812553,-0.1154263056985807,95.66004990250194
3.01,-0.1849330624438329,-0.058119583503158594,95.13265342669114
3.02,-0.15998931549614775,-0.11253347575045969,94.73963622350163
3.03,-0.17855923029995266,-0.05058866256383529,94.54903131380028
3.04,-0.14607720110517838,-0.10560024694917791,94.45907029447221
3.05,-0.16345202238200576,-0.03552682068518868,94.35842640409894
3.06,-0.1315522182388359,-0.08821935957493016,94.32469102185091
3.07,-0.1553315150833122,-0.025103069797744352,94.1785043654428
3.08,-0.12634283619816455,-0.07896708527804724,93.89793843641338
3.09,-0.1495399079910364,-0.018743625448982452,93.49423836217868
3.1,-0.126925061249769,-0.08475274517428927,92.8661979959946
3.11,-0.15128658314584972,-0.01759605654394271,92.04699046373837
3.12,-0.12634283619816455,-0.07954086973056711,91.14906703957008
3.13,-0.15419770840387195,-0.02278402430214321,90.43106565405793
3.14,-0.1211334541574932,-0.08185991522616826,89.94864968791117
3.15,-0.1605715405477522,-0.016424579953381306,89.61185812180172
3.16,-0.14083717564073836,-0.06215998235631935,89.43249833951637
3.17,-0.1704387230012591,0.030482299040118142,89.44374346693239
3.18,-0.12867173640458232,-0.025103069797744352,89.5899301233405
3.19,-0.11472897858984431,0.05651776857320729,89.75804477820982
3.2,-0.0944430320549947,-0.010638920057139274,90.02736557982323
3.21,-0.1315522182388359,0.04552023323324309,90.30793150885265
3.22,-0.1054746646117105,-0.025103069797744352,90.47604616372197
3.23,-0.11764010384786654,0.022377593648274966,90.58849743788205
3.24,-0.11996900405428432,-0.07026468774816252,90.6554059460073
3.25,-0.16115376559935662,-0.029167376336426774,90.47604616372197
3.26,-0.14025495058913393,-0.0980693260098546,90.19548023469255
3.27,-0.15128658314584972,-0.025103069797744352,89.8480057975379
3.28,-0.12517838609495566,-0.09575028051425347,89.47747884918041
3.29,-0.16578092258842353,-0.04884340152075401,89.09626902977772
3.3,-0.22262447367927857,-0.2422326697054722,88.66951644434019
3.31,0.02506632064275979,0.12659119483719652,88.24332611527346
3.32,0.910232259624128,0.7131184437401129,87.82838091362275
3.33,0.8696297231306602,0.7466848342125254,87.44660883784925
3.34,-0.04222663795320659,0.010782366170269241,87.1210623991558
3.35,-0.18897799438129537,-0.013531750005260289,86.75109770716912
3.36,-0.12517838609495566,-0.11313116788850122,86.40306101364366
3.37,-0.1553315150833122,-0.05173623146887503,86.15623046686227
3.38,-0.12983618650779122,-0.11427873679354096,85.86441941041684
3.39,-0.14895768293943193,-0.04131248058143071,85.59509860880344
3.4,-0.12750728630137345,-0.10385498590609664,85.42698395393411
3.41,-0.15186880819745416,-0.03437925178014893,85.29260468131281
3.42,-0.12867173640458232,-0.0968978494192932,85.15766315232071
3.43,-0.14895768293943193,-0.023955500892704613,84.98954849745138
3.44,-0.126925061249769,-0.08590031407932901,84.77645333291801
3.45,-0.14779323283622306,-0.010065135604619403,84.56279591201385
3.46,-0.1211334541574932,-0.07026468774816252,84.3609458748965
3.47,-0.12459616104335122,0.010782366170269241,84.06913481845108
3.48,-0.09790573894085272,-0.050014878111315414,83.74415063612842
3.49,-0.09502525710659915,0.04320118773764195,83.42984932485099
3.5,-0.05500494566473572,-0.004279475708377371,83.1942639054856
3.51,-0.03410613065451301,0.09242711222674255,83.1942639054856
3.52,0.03376905299305781,0.06232733615497098,83.6991701264644
3.53,0.05984660662018321,0.1705813361970533,85.24762417164878
3.54,0.11264522577357577,0.11963405835039309,88.06396633298813
3.55,0.11727238276264268,0.20706446430310843,91.39589758635148
3.56,0.11613857608320244,0.11731501285479194,94.42533491222419
3.57,0.034320634620893596,0.1410553445778016,96.69179034292073
3.58,-0.019029566160334754,0.0044229218215073385,98.06088460581977
3.59,-0.10777292139435962,0.02527042359639598,98.59952620904659
3.6,-0.13096999318723146,-0.08011465418308698,98.67824210095864
3.61,-0.18143971213420623,-0.025700761935785885,98.39767617192923
3.62,-0.17972368040316156,-0.10849307689729892,97.90401507836646
3.63,-0.21104125949472696,-0.04363152607703185,97.25292220097955
3.64,-0.18839576932969093,-0.11891682778474325,96.42246954130732
3.65,-0.20521900897868253,-0.05058866256383529,95.72695841062719
3.66,-0.19130689458771316,-0.12353101109042389,95.18831680740037
3.67,-0.20350297724763783,-0.04826961706823414,94.69465571383759
3.68,-0.18551528749543736,-0.12353101109042389,94.3022007670189
3.69,-0.19538246994894426,-0.04537678712011313,94.0441250928215
3.7,-0.1704387230012591,-0.11253347575045969,93.85352018312015
3.71,-0.1895602194328998,-0.03380546732762906,93.84227505570415
3.72,-0.175065879990326,-0.10964064580233868,93.83102992828813
3.73,-0.1860975125470418,-0.02799589974586537,93.60668963633877
3.74,-0.1704387230012591,-0.10328120145357676,93.30363345247733
3.75,-0.1849330624438329,-0.02338171644018474,92.92186137670384
3.76,-0.16578092258842353,-0.1027074170010569,92.37253690243182
3.77,-0.17681255514513933,-0.02799589974586537,91.63148300571686
3.78,-0.1553315150833122,-0.10153594041049549,90.83532798466345
3.79,-0.17102094805286355,-0.026274546388305755,90.00487532499122
3.8,-0.1594070904445433,-0.10210972486301537,89.35434470397512
3.81,-0.17448365493872156,-0.02799589974586537,89.05128852011369
3.82,-0.15245103324905862,-0.09979067936741422,88.91634699112159
3.83,-0.18318638728901956,-0.025700761935785885,88.97257262820162
3.84,-0.1692742728980502,-0.07432899428684495,89.18566779273499
3.85,-0.17914145535155712,0.02873703799703687,89.38751782985234
3.86,-0.15012213304264083,-0.04363152607703185,89.56743986850847
3.87,-0.12284948588853789,0.055943984120687414,89.76928990562583
3.88,-0.11822232889947099,-0.030314945241466513,89.92615943307915
3.89,-0.15303325830066306,0.04030835778952093,89.94864968791117
3.9,-0.12401393599174677,-0.04073869612891084,89.91491430566315
3.91,-0.13737446875488035,0.015994241613991402,89.80302528787385
3.92,-0.14083717564073836,-0.08996462061801143,89.6011752507565
3.93,-0.16869204784644576,-0.03784586618078982,89.28687393947907
3.94,-0.1582426403413344,-0.12180965773286427,88.92759211853759
3.95,-0.15882486539293886,-0.0471220481631944,88.46766640722284
3.96,-0.14665942615678282,-0.12353101109042389,87.99649556849208
3.97,-0.18260416223741513,-0.11949061223726312,87.61472349271858
3.98,-0.20696568413349586,-0.234127964313629,87.16604290881985
3.99,0.41892624634128245,0.468184205570693,86.7286074523371
4.0,1.2072283227899323,0.867131753870655,86.39181588622765
4.01,0.37078542760072547,0.5226220055035158,86.10000482978222
4.02,-0.1704387230012591,-0.011786488962179015,85.75253039262756
4.03,-0.15012213304264083,-0.015850795500861433,85.51694497326218
4.04,-0.12983618650779122,-0.1241287032284654,85.27011442648079
4.05,-0.14433052595036505,-0.05290770805943643,85.00079362486738
4.06,-0.13096999318723146,-0.1275953176291063,84.86585209587528
4.07,-0.13737446875488035,-0.049441093658795544,84.753963078086
4.08,-0.13213444329044036,-0.12295722663790401,84.54086791355263
4.09,-0.13737446875488035,-0.04191017271947224,84.32721049264848
4.1,-0.12750728630137345,-0.11659778228914211,84.18158609261116
4.11,-0.13446334349685812,-0.029167376336426774,83.87852990874973
4.12,-0.1158934286930532,-0.09749554155733474,83.5754737248883
4.13,-0.12983618650779122,-0.018743625448982452,83.38486881518695
4.14,-0.11472897858984431,-0.08996462061801143,83.14928339582157
4.15,-0.11472897858984431,0.0003586152828249193,82.84622721196014
4.16,-0.08865142496271891,-0.06101241345127961,82.49875277480547
4.17,-0.07412644209637644,0.03684174338888005,82.21818684577606
4.18,-0.026567848407423884,-0.011786488962179015,82.15071608128001
4.19,0.015199138189252878,0.10053181761858572,82.71184793933884
4.2,0.06971378907369012,0.0594105985213283,84.29403736677125
4.21,0.110316325567158,0.16596715289137268,87.07664414586257
4.22,0.14920283032958118,0.10689126196734762,90.58849743788205
4.23,0.15150108711223031,0.19489545237258282,93.7972945460401
4.24,0.12367685833029157,0.08953428227862152,96.09748535898467
4.25,0.04360559202279606,0.11152935295854992,97.56722351225699
4.26,-0.03294168055130412,-0.0285935918839069,98.28522489776914
4.27,-0.10139908925047939,0.007315751769628355,98.44209442522246
4.28,-0.1327166683420448,-0.09517649606173359,98.30771515260116
4.29,-0.16810982279484132,-0.03495303623266881,97.85903456870241
4.3,-0.17914145535155712,-0.12295722663790401,97.23043194614753
4.31,-0.18551528749543736,-0.04769583261571427,96.55741107029942
4.32,-0.18667973759864626,-0.12934057867218757,95.89563532186732
4.33,-0.1907246695361087,-0.05405527696447617,95.32325833639248
4.34,-0.18667973759864626,-0.1339547619778682,94.85208749766171
4.35,-0.18839576932969093,-0.057545799050638724,94.52654105896826
4.36,-0.18551528749543736,-0.14033811401215177,94.27971051218688
4.37,-0.18027526203099736,-0.058119583503158594,94.14533123956558
4.38,-0.17102094805286355,-0.13163571648226705,94.18974949285881
4.39,-0.17797700524834822,-0.05462906141699605,94.27971051218688
4.4,-0.17215475473230377,-0.12470248768098528,94.21223974769083
4.41,-0.17331920483551266,-0.04073869612891084,93.98789945574146
4.42,-0.16752759774323686,-0.11774535119418185,93.68484327188003
4.43,-0.1692742728980502,-0.04248395717199211,93.21367243314927
4.44,-0.1617359906509611,-0.11427873679354096,92.5968771943812
4.45,-0.1605715405477522,-0.03495303623266881,91.82265017178901
4.46,-0.1582426403413344,-0.11313116788850122,90.92472674762071
4.47,-0.1617359906509611,-0.03727208172826995,90.00487532499122
4.48,-0.15998931549614775,-0.11831913564670173,89.26438368464704
4.49,-0.15419770840387195,-0.03206020628454779,88.96132750078561
4.5,-0.1553315150833122,-0.11427873679354096,88.86012135404154
4.51,-0.15419770840387195,-0.026274546388305755,88.95008237336961
4.52,-0.1483754578878275,-0.10849307689729892,89.10695190082292
4.53,-0.15591374013491663,-0.03380546732762906,89.196912920151
4.54,-0.1617359906509611,-0.10500255481113638,89.35434470397512
4.55,-0.1762303300935349,0.004996706274027209,89.6011752507565
4.56,-0.15186880819745416,-0.04769583261571427,89.75804477820982
4.57,-0.1338811184452537,0.03162986794515789,89.83676067012188
4.58,-0.10951959654917297,-0.025700761935785885,89.8592509249539
4.59,-0.1280895113529779,0.04262740328512208,89.75804477820982
4.6,-0.13621001865167146,-0.04537678712011313,89.66808375888175
4.61,-0.12284948588853789,0.02409894700583458,89.39876295726835
4.62,-0.12983618650779122,-0.08707179066989042,88.99506288303364
4.63,-0.1483754578878275,-0.03727208172826995,88.55762742655091
4.64,-0.1536154833522675,-0.12353101109042389,88.17585535077741
4.65,-0.15012213304264083,-0.04480300266759325,87.81713578620673
4.66,-0.14083717564073836,-0.12874288653414603,87.35664781852118
4.67,-0.1605715405477522,-0.09749554155733474,86.93045748945445
4.68,-0.2174150916386072,-0.2601873415322398,86.51551228780374
4.69,0.2814292038913275,0.34661362469304535,86.07751457495021
4.7,1.1207832243385565,0.8462842520957663,85.62883399105147
4.71,0.5697225347068338,0.6615734737554112,85.27011442648079
4.72,-0.1640342474336102,-0.01410553445778016,84.8883423507073
4.73,-0.13041841155939568,-0.008893659014058,84.6302666765099
4.74,-0.12055122910588877,-0.12644774872406656,84.43966176680856
4.75,-0.13096999318723146,-0.05405527696447617,84.20407634744318
4.76,-0.13329889339364923,-0.13512623856842962,83.9797360554938
4.77,-0.12634283619816455,-0.049441093658795544,83.75539576354443
4.78,-0.12576061114656012,-0.12934057867218757,83.5754737248883
4.79,-0.12634283619816455,-0.04191017271947224,83.441094452267
4.8,-0.1280895113529779,-0.12934057867218757,83.29547005222969
4.81,-0.11647565374465764,-0.03437925178014893,83.10430288615754
4.82,-0.11647565374465764,-0.1090668613498188,82.90245284904019
4.83,-0.11301294685879963,-0.022210239849623337,82.74558332158686
4.84,-0.10602624623954629,-0.09168597397557104,82.53248815705349
4.85,-0.09386080700339025,-0.0007889536222148225,82.19569659094404
4.86,-0.08282917444667445,-0.07490277873936482,81.83641477000256
4.87,-0.06137877780861596,0.028163253544517,81.6233196054692
4.88,-0.025403398304214994,-0.029167376336426774,81.58958422322118
4.89,0.018079620023506448,0.08664145233050051,82.0163368086587
4.9,0.07608762121757036,0.041479834380082334,83.49732008934704
4.91,0.12309463327868712,0.16132906190017038,86.15623046686227
4.92,0.15266553721543918,0.09589372662738344,89.69057401371377
4.93,0.17123545201924412,0.1891097924763408,93.16869192348523
4.94,0.1410823230308876,0.09125563563618114,95.72695841062719
4.95,0.07783429637238369,0.12310067275103398,97.19669656389951
4.96,-0.003953001666156495,-0.021062670944583594,98.02714922357174
4.97,-0.07182818531372731,0.018313287109592548,98.30771515260116
4.98,-0.1211334541574932,-0.10560024694917791,98.10586511548381
4.99,-0.14895768293943193,-0.03784586618078982,97.64593940416906
5.0,-0.16694537269163243,-0.13223340862030858,96.98360139936615
5.01,-0.17448365493872156,-0.0534814925119563,96.27684514127
5.02,-0.17972368040316156,-0.13684759192598922,95.60382426542189
5.03,-0.1739014298871171,-0.055226753555037575,94.97522164286701
5.04,-0.1773947801967438,-0.14380472841279265,94.40284465739218
5.05,-0.17273697978390823,-0.05869336795567846,94.01038971057348
5.06,-0.1762303300935349,-0.14554998945587394,93.70733352671205
5.07,-0.17102094805286355,-0.05984093686071821,93.44925785251465
5.08,-0.16869204784644576,-0.13916663742159036,93.34861396214137
5.09,-0.1605715405477522,-0.04884340152075401,93.35985908955738
5.1,-0.16231821570256552,-0.13048814757722732,93.34861396214137
5.11,-0.1547799334554764,-0.03959112722387109,93.28114319764532
5.12,-0.16231821570256552,-0.12702153317658643,93.04555777827994
5.13,-0.15128658314584972,-0.04131248058143071,92.58563206696519
5.14,-0.1483754578878275,-0.11485252124606084,91.92329406216228
5.15,-0.1449127510019695,-0.03437925178014893,91.07091340402883
5.16,-0.14607720110517838,-0.11602399783662223,90.2629509991886
5.17,-0.1425838507955517,-0.03263399073706766,89.5899301233405
5.18,-0.14607720110517838,-0.12180965773286427,88.99506288303364
5.19,-0.13446334349685812,-0.030314945241466513,88.58011768138292
5.2,-0.14433052595036505,-0.11195969129793981,88.31079687976951
5.21,-0.15649596518652106,-0.029167376336426774,88.20959073302544
5.22,-0.16752759774323686,-0.08707179066989042,88.34453226201754
5.23,-0.1472110077846186,0.03509648234579877,88.50140178947086
5.24,-0.1437483008987606,-0.06275767449436088,88.62453593467616
5.25,-0.08923365001432336,0.060582075111889705,88.81570310074831
5.26,-0.1112662717039863,-0.04826961706823414,88.98381775561764
5.27,-0.1054746646117105,0.03973457333700106,89.01755313786566
5.28,-0.10719069634275519,-0.0534814925119563,88.96132750078561
5.29,-0.10372798945689717,0.007889536222148226,88.90510186370557
5.3,-0.13329889339364923,-0.11774535119418185,88.79321284591629
5.31,-0.13041841155939568,-0.04363152607703185,88.59136280879893
5.32,-0.13329889339364923,-0.12527627213350515,88.26581637010548
5.33,-0.11531120364144876,-0.04248395717199211,87.85030891208396
5.34,-0.1396727255375295,-0.17739502657072675,87.3791380733532
5.35,-0.2029207521960334,-0.18896634636321083,86.9754379991185
5.36,0.2402444423462552,0.21112877084179085,86.63864643300904
5.37,1.0935412206082222,0.9035909742911884,86.22370123135832
5.38,0.6207744787054129,0.5949905695775844,85.80875602970761
5.39,-0.1280895113529779,0.04841306318136411,85.34826806202206
5.4,-0.12284948588853789,-0.1027074170010569,84.91083260553931
5.41,-0.09965241409566605,-0.04826961706823414,84.56279591201385
5.42,-0.1158934286930532,-0.14323094396027278,84.31596536523246
5.43,-0.11243072180719518,-0.06390524339940062,84.03596169257385
5.44,-0.11243072180719518,-0.13512623856842962,83.77788601837645
5.45,-0.10893737149756852,-0.05580053800755745,83.55298347005628
5.46,-0.11414675353823986,-0.13455245411590974,83.35113343293892
5.47,-0.10660847129115074,-0.049441093658795544,83.22799928773362
5.48,-0.11414675353823986,-0.12934057867218757,83.11554801357354
5.49,-0.10139908925047939,-0.03841965063330969,82.86871746679216
5.5,-0.10139908925047939,-0.10560024694917791,82.58815153776274
5.51,-0.07936646756081644,-0.014679318910300032,82.45377226514144
5.52,-0.07470866714798088,-0.0841789607217694,82.29634048131732
5.53,-0.05616939576794461,0.007889536222148226,81.99384655382669
5.54,-0.0410621878499977,-0.05173623146887503,81.69079036996526
5.55,0.00012257369507462,0.054796415215647674,81.4889403328479
5.56,0.03897843503372916,0.006741967317108483,81.55584884097316
5.57,0.0975686612793975,0.12891024033279766,82.35256611839736
5.58,0.1416339046587234,0.08721523678302039,84.4958874038886
5.59,0.17877373426633325,0.18389791703261862,87.82838091362275
5.6,0.18747646661663128,0.11442218290667093,91.39589758635148
5.61,0.16715987665801302,0.176390903778817,94.27971051218688
5.62,0.08595480367107727,0.041479834380082334,96.20937437677395
5.63,0.015781363240857323,0.05362493862508627,97.24167707356355
5.64,-0.04918269514869127,-0.07026468774816252,97.64593940416906
5.65,-0.08632252475630113,-0.022210239849623337,97.63469427675304
5.66,-0.12517838609495566,-0.11774535119418185,97.26416732839556
5.67,-0.13504556854846259,-0.050014878111315414,96.6698623444595
5.68,-0.14665942615678282,-0.1339547619778682,96.06374997673664
5.69,-0.1425838507955517,-0.06101241345127961,95.42390222676576
5.7,-0.15707819023812553,-0.1426571595077529,94.65023746054436
5.71,-0.12983618650779122,-0.06215998235631935,93.96540920090943
5.72,-0.13621001865167146,-0.13627380747346934,93.3823493443894
5.73,-0.13096999318723146,-0.05869336795567846,92.87744312341061
5.74,-0.1338811184452537,-0.13223340862030858,92.57438693954917
5.75,-0.11472897858984431,-0.04826961706823414,92.32755639276779
5.76,-0.11996900405428432,-0.12353101109042389,92.20385999119169
5.77,-0.11184849675559073,-0.04769583261571427,92.10321610081841
5.78,-0.11647565374465764,-0.11602399783662223,91.96827457182631
5.79,-0.10139908925047939,-0.03959112722387109,91.67646351538089
5.8,-0.11068404665238185,-0.10732160030673753,91.19404754923413
5.81,-0.09735415731301693,-0.03437925178014893,90.50978154597
5.82,-0.11647565374465764,-0.11774535119418185,89.7243093959618
5.83,-0.10777292139435962,-0.04537678712011313,88.92759211853759
5.84,-0.10431021450850161,-0.10791929244477906,88.27706149752149
5.85,-0.1002346391472705,-0.03841965063330969,87.70468451204665
5.86,-0.11764010384786654,-0.1154263056985807,87.33471982005997
5.87,-0.10893737149756852,-0.03841965063330969,87.2447588007319
5.88,-0.10602624623954629,-0.1090668613498188,87.28973931039593
5.89,-0.10660847129115074,-0.03669829727575008,87.41287345560123
5.9,-0.13446334349685812,-0.08011465418308698,87.60347836530258
5.91,-0.10431021450850161,0.02352516255331471,87.90653454916401
5.92,-0.10951959654917297,-0.05869336795567846,88.15336509594539
5.93,-0.04513776321122881,0.05651776857320729,88.2883066249375
5.94,-0.08515807465309223,-0.04422921821507338,88.25457124268948
5.95,-0.07761979240600311,0.027565561406475467,88.20959073302544
5.96,-0.07761979240600311,-0.04191017271947224,88.08645658782015
5.97,-0.06949928510730953,-0.004853260160897242,87.92902480399603
5.98,-0.09848796399245716,-0.11081212239290007,87.6259686201346
5.99,-0.0956074821582036,-0.04769583261571427,87.17728803623585
6.0,-0.09094968174536804,-0.11602399783662223,86.76234283458513
6.01,-0.09965241409566605,-0.05926715240819833,86.36932563139563
6.02,-0.17215475473230377,-0.24455171520107333,85.97687068457694
6.03,-0.013237959068058958,0.009037105127187967,85.65132424588349
6.04,0.7959629323908136,0.656361598311689,85.29260468131281
6.05,1.0906300953502,0.8236914892777963,84.79894358775003
6.06,0.045352267177609394,0.06290112060749085,84.33845562006448
6.07,-0.10835514644596407,-0.001960430212776226,83.9684909280778
6.08,-0.07241041036533176,-0.11021443025485854,83.65418961680035
6.09,-0.0631254529634293,-0.055226753555037575,83.36237856035493
6.1,-0.08515807465309223,-0.12874288653414603,83.11554801357354
6.11,-0.06542370974607842,-0.05116244701635516,82.94743335870422
6.12,-0.07703756735439866,-0.1154263056985807,82.71184793933884
6.13,-0.04222663795320659,-0.03552682068518868,82.48750764738946
6.14,-0.06833483500410065,-0.11195969129793981,82.26316735544009
6.15,-0.049764920200295715,-0.03206020628454779,82.07200018936794
6.16,-0.05963210265380262,-0.08707179066989042,81.91513066191463
6.17,-0.06021432770540707,-0.026274546388305755,81.7470160070453
6.18,-0.06542370974607842,-0.08243369967868812,81.55584884097316
6.19,-0.03352390560290857,0.0038491373689874676,81.29777316677576
6.2,-0.03585280580932635,-0.057545799050638724,81.01776949411715
6.21,-0.001624101459738715,0.031056083492638015,80.6922230554237
6.22,0.014616913137648433,-0.012384181100220548,80.45663763605832
6.23,0.06913156402208567,0.07853674693865734,80.40041199897827
6.24,0.09640421117618862,0.04030835778952093,80.77093894733575
6.25,0.15732333762827475,0.14801248106460504,82.04950993453593
6.26,0.17469815890510215,0.10689126196734762,84.83211671362726
6.27,0.21937627075980112,0.19142883797194193,88.53513717171889
6.28,0.19152139855409372,0.11788879730731182,92.13638922669564
6.29,0.16020381946252832,0.14337439007340275,94.8295972428297
6.3,0.07437158948652568,0.018887071562112417,96.45620492355535
6.31,0.030275702683431136,0.030482299040118142,97.29790271064358
6.32,-0.03585280580932635,-0.07086237988620406,97.49975274776094
6.33,-0.05034714525190016,-0.03380546732762906,97.3091478380596
6.34,-0.08166472434346557,-0.10560024694917791,96.75926110741678
6.35,-0.073544217044772,-0.05637432246007732,96.05250484932064
6.36,-0.09735415731301693,-0.12585005658602502,95.23329731706441
6.37,-0.08399362454988335,-0.06215998235631935,94.38091665893096
6.38,-0.11414675353823986,-0.12527627213350515,93.49423836217868
6.39,-0.08923365001432336,-0.05984093686071821,92.64129544767442
6.4,-0.10660847129115074,-0.12180965773286427,92.01325508149034
6.41,-0.07936646756081644,-0.05233392360691656,91.59830987983963
6.42,-0.09036745669376359,-0.11370495234102108,91.30649882339421
6.43,-0.06428990306663819,-0.04131248058143071,91.09340365886085
6.44,-0.07645534230279422,-0.10791929244477906,90.92472674762071
6.45,-0.05034714525190016,-0.025103069797744352,90.81283772983143
6.46,-0.06428990306663819,-0.08128613077364838,90.68914132825533
6.47,-0.04397331310801992,-0.02338171644018474,90.3973302718099
6.48,-0.05616939576794461,-0.08243369967868812,89.83676067012188
6.49,-0.04397331310801992,-0.023955500892704613,89.06253364752969
6.5,-0.06542370974607842,-0.08996462061801143,88.31079687976951
6.51,-0.04339108805641548,-0.030314945241466513,87.6372137475506
6.52,-0.05788542749898929,-0.083007484131208,87.1098172717398
6.53,-0.03759948096413968,-0.02799589974586537,86.88547697979043
6.54,-0.04804888846925104,-0.08475274517428927,86.80732334424917
6.55,-0.048600470097086824,-0.0285935918839069,86.87423185237442
6.56,-0.07587311725118977,-0.05984093686071821,87.04290876361455
6.57,-0.03468835570611746,0.03741552784139992,87.2335136733159
6.58,-0.03876393106734857,-0.03669829727575008,87.44660883784925
6.59,0.022155195384737564,0.061155859564409575,87.69343938463065
6.6,-0.021358466366752534,-0.024529285345224482,87.895289421748
6.61,-0.001624101459738715,0.04262740328512208,87.98525044107606
6.62,-0.014984634222872294,-0.025103069797744352,87.99649556849208
6.63,0.00012257369507462,-0.0007889536222148225,87.83962604103876
6.64,-0.04455553815962437,-0.08243369967868812,87.61472349271858
6.65,-0.026567848407423884,-0.03841965063330969,87.27849418297993
6.66,-0.04513776321122881,-0.09632406496677333,86.8404964701264
6.67,-0.01728289100552142,-0.03901734277135122,86.42555126847567
6.68,-0.10489243956010606,-0.20574954159941705,85.99936093940894
6.69,0.01752803839567066,-0.029167376336426774,85.58385348138744
6.7,0.7913357754017467,0.5857382952807015,85.20264366198474
6.71,1.2745212813858986,0.7420706509068448,84.83211671362726
6.72,0.18689424156502682,0.07389865594745504,84.38343612972851
6.73,-0.04571998826283326,-0.008893659014058,83.99098118290982
6.74,-0.03989773774678881,-0.10732160030673753,83.68792499904838
6.75,-0.00741570855201451,-0.058119583503158594,83.452339579683
6.76,-0.026567848407423884,-0.10964064580233868,83.20550903290162
6.77,-0.009162383706827844,-0.05173623146887503,82.9249431038722
6.78,-0.02889674861384166,-0.09979067936741422,82.65562230225879
6.79,-0.00220632651134316,-0.03669829727575008,82.42003688289341
6.8,-0.03410613065451301,-0.10038837150545575,82.25192222802409
6.81,-0.00220632651134316,-0.03612451282323021,82.06075506195194
6.82,-0.022522916469961424,-0.083007484131208,81.87015015225059
6.83,0.0018386054261192999,-0.025700761935785885,81.66830011513323
6.84,-0.02194069141835698,-0.06622428889500177,81.41022444093583
6.85,0.01752803839567066,-0.001960430212776226,81.17463902157046
6.86,-0.00045965135652982497,-0.04305774162451198,80.93905360220508
6.87,0.036067309775706935,0.020632332605193694,80.68097792800768
6.88,0.034902859672498045,-0.006000829065936983,80.42290225381029
6.89,0.0987331113826064,0.07853674693865734,80.2992058522342
6.9,0.10856965041234466,0.05826302961628856,80.54603639901558
6.91,0.17760928416312435,0.14280060562088287,81.71328062479728
6.92,0.18689424156502682,0.11788879730731182,84.2265666022752
6.93,0.24140889244946406,0.18449560917066016,87.79464553137473
6.94,0.21242021356431645,0.12601741038467665,91.34023420564223
6.95,0.19443252381211595,0.13584346913407944,94.13408611214957
6.96,0.09989756148581529,0.026417992501435724,95.94005357516055
6.97,0.06450440703301877,0.01946085601463229,96.83797699932883
6.98,-0.015536215850708083,-0.06101241345127961,97.12978805577426
6.99,-0.016118440902312528,-0.03612451282323021,96.94986601711813
7.0,-0.05846765255059373,-0.09460271160921373,96.42246954130732
7.01,-0.04339108805641548,-0.050014878111315414,95.6150693928379
7.02,-0.07529089219958533,-0.11313116788850122,94.81835211541369
7.03,-0.052093820406713495,-0.06505281230444036,93.95416407349343
7.04,-0.07820201745760755,-0.11602399783662223,93.07929316052797
7.05,-0.03989773774678881,-0.06796954993808305,92.27133075568774
7.06,-0.07008151015891398,-0.11253347575045969,91.56457449759161
7.07,-0.03643503086093079,-0.05290770805943643,91.00344263953278
7.08,-0.053258270509922385,-0.09979067936741422,90.49853641855398
7.09,-0.01844734110873031,-0.04826961706823414,90.22921561694058
7.1,-0.0463022133144377,-0.09343123501865232,90.1280094701965
7.11,-0.013237959068058958,-0.04131248058143071,90.01612045240722
7.12,-0.04164441290160214,-0.08590031407932901,89.82551554270587
7.13,0.0012870237982835098,-0.02799589974586537,89.51121423142844
7.14,-0.03294168055130412,-0.08475274517428927,89.00630801044964
7.15,0.004749730684141524,-0.03437925178014893,88.2883066249375
7.16,-0.03352390560290857,-0.08243369967868812,87.57030523942535
7.17,0.01403468808604399,-0.015277011048341563,86.8629867249584
7.18,0.025648545694364235,-0.04537678712011313,86.3355902491476
7.19,0.07146046422850345,-0.004279475708377371,86.10000482978222
7.2,0.070878239176899,-0.016998364405901176,86.16747559427827
7.21,0.11669015771103823,0.05247736972004653,86.35808050397962
7.22,0.043023366971191614,-0.014679318910300032,86.4592866507237
7.23,0.05230832437309408,0.021206117057713563,86.17872072169429
7.24,0.0035852805809326346,-0.04537678712011313,85.98811581199294
7.25,0.012288012931230654,-0.03263399073706766,86.08875970236622
7.26,-0.04339108805641548,-0.08939083616549157,86.3355902491476
7.27,-0.01844734110873031,-0.05869336795567846,86.4592866507237
7.28,-0.051511595355109054,-0.10153594041049549,86.4592866507237
7.29,-0.0196117912119392,-0.0644790278519205,86.41430614105967
7.3,-0.10835514644596407,-0.21155910918118073,86.2012109765263
7.31,-0.020194016263543644,-0.07779560868748583,85.87566453783286
7.32,0.7443287633406299,0.5961620461681459,85.41573882651811
7.33,1.2739390563342943,0.8549627419401293,84.95581311520336
7.34,0.14512725496835008,0.1815788715370175,84.48464227647258
7.35,-0.053258270509922385,0.007315751769628355,83.9684909280778
7.36,-0.05034714525190016,-0.10210972486301537,83.54230059901107
7.37,-0.020194016263543644,-0.08358126858372787,83.22799928773362
7.38,-0.0567209773957804,-0.11602399783662223,82.94743335870422
7.39,-0.01728289100552142,-0.0841789607217694,82.67811255709081
7.4,-0.049764920200295715,-0.11485252124606084,82.38630150064539
7.41,-0.012655734016454513,-0.07954086973056711,82.15071608128001
7.42,-0.04513776321122881,-0.10791929244477906,81.93762091674664
7.43,0.0007047987466790649,-0.06796954993808305,81.7582611344613
7.44,-0.03410613065451301,-0.0968978494192932,81.56709396838916
7.45,0.007078630890559304,-0.055226753555037575,81.3652439312718
7.46,-0.02773229851063277,-0.08011465418308698,81.11841338449042
7.47,0.020990745281528674,-0.04131248058143071,80.849092582877
7.48,-0.0033707766145520497,-0.05869336795567846,80.49037301830634
7.49,0.05230832437309408,-0.01989119435402219,80.16482657961289
7.5,0.046516717280818284,-0.021062670944583594,79.96297654249554
7.51,0.11901905791745601,0.027565561406475467,80.0523753054528
7.52,0.1288862403709629,0.041479834380082334,80.6922230554237
7.53,0.2164651455017789,0.10457221647174648,82.25192222802409
7.54,0.22054072086301002,0.10574369306230788,84.98954849745138
7.55,0.28317587904614083,0.14801248106460504,88.45642127980683
7.56,0.2344528352539794,0.11731501285479194,91.59830987983963
7.57,0.21821182065659223,0.09821277212298457,93.81978480087213
7.58,0.110316325567158,0.01946085601463229,95.14389855410714
7.59,0.0819098717336148,-0.010065135604619403,95.66004990250194
7.6,-0.009162383706827844,-0.06911711884312279,95.78318404770722
7.61,-0.0010418764081342698,-0.06505281230444036,95.6150693928379
7.62,-0.05846765255059373,-0.09111218952305117,95.24454244448042
7.63,-0.03006119871705055,-0.08068843863560685,94.67216545900558
7.64,-0.07936646756081644,-0.10500255481113638,93.9204286912454
7.65,-0.03585280580932635,-0.08475274517428927,93.09053828794397
7.66,-0.07529089219958533,-0.11081212239290007,92.32755639276779
7.67,-0.031225648820259442,-0.09285745056613244,91.62080013467164
7.68,-0.07241041036533176,-0.11138590684541995,91.0371780217808
7.69,-0.026567848407423884,-0.09460271160921373,90.71163158308735
7.7,-0.06254322791182484,-0.10674781585421765,90.61098769271408
7.71,-0.017865116057125863,-0.08939083616549157,90.6441608185913
7.72,-0.06021432770540707,-0.10038837150545575,90.6329156911753
7.73,-0.017865116057125863,-0.07779560868748583,90.56600718305005
7.74,-0.055587170716340166,-0.08939083616549157,90.35291201851668
7.75,-0.00974460875843229,-0.07086237988620406,89.95989481532717
7.76,-0.049764920200295715,-0.07779560868748583,89.41000808468436
7.77,-0.013820184119663403,-0.07086237988620406,88.72574208142024
7.78,-0.052676045458317944,-0.08068843863560685,87.99649556849208
7.79,0.00012257369507462,-0.05290770805943643,87.32347469264396
7.8,-0.02365672314940166,-0.05233392360691656,86.7286074523371
7.81,0.05463722457951186,-0.021062670944583594,86.26868174102235
7.82,0.026200127322200024,-0.04016491167639097,85.94313530232891
7.83,0.09698643622779307,0.017739502657072675,85.71879501037954
7.84,0.06566885713622767,0.026991776953955594,85.65132424588349
7.85,0.05696612478592964,0.0044229218215073385,85.78626577487559
7.86,-0.002788551562947605,-0.012384181100220548,86.02185119424097
7.87,0.0239018705395509,-0.03148642183202792,86.27992686843837
7.88,-0.04804888846925104,-0.0766480397824461,86.50426716038774
7.89,-0.022522916469961424,-0.07722182423496596,86.582420795929
7.9,-0.07124596026212288,-0.08358126858372787,86.53800254263577
7.91,-0.030643423768654997,-0.08128613077364838,86.4480415233077
7.92,-0.08053091766402533,-0.09575028051425347,86.35808050397962
7.93,-0.10893737149756852,-0.22717082782682557,86.22370123135832
7.94,0.03144015278664003,0.009037105127187967,85.9318901749129
7.95,0.9421320637672979,0.7750632569267373,85.44947420876613
7.96,1.050027558856732,0.835860501208322,85.03452900711541
7.97,0.04826339243563162,0.1300578092378374,84.66400205875793
7.98,-0.09965241409566605,-0.013531750005260289,84.26030198452322
7.99,-0.02077624131514809,-0.07896708527804724,83.86728478133372
8.0,-0.07936646756081644,-0.09517649606173359,83.39611394260297
8.01,-0.03468835570611746,-0.09517649606173359,82.9249431038722
8.02,-0.07296199199316755,-0.0968978494192932,82.59939666517874
8.03,-0.030643423768654997,-0.09111218952305117,82.33007586356534
8.04,-0.06658815984928732,-0.08879314402745003,82.10573557161597
8.05,-0.02365672314940166,-0.08358126858372787,81.85890502483458
8.06,-0.06021432770540707,-0.0766480397824461,81.54460371355714
8.07,-0.016118440902312528,-0.07026468774816252,81.30901829419176
8.08,-0.053258270509922385,-0.05869336795567846,81.11841338449042
8.09,-0.005117451769365384,-0.05405527696447617,80.93905360220508
8.1,-0.02889674861384166,-0.03612451282323021,80.66973280059167
8.11,0.022155195384737564,-0.03437925178014893,80.2992058522342
8.12,0.007078630890559304,-0.004853260160897242,80.00795705215957
8.13,0.07320713938331679,0.0021038763259061933,79.95173141507952
8.14,0.07899874647559259,0.04494644878072322,80.1873168344449
8.15,0.16311494472055055,0.06983434940877263,81.27584516831453
8.16,0.1735643522256619,0.1149959673591908,83.7104152538804
8.17,0.24781336801711296,0.1300578092378374,86.89672210720643
8.18,0.23503506030558383,0.14973383442216465,90.08359121690327
8.19,0.25476942521259766,0.13526968468155956,92.65254057509044
8.2,0.15324776226704365,0.09531994217486356,94.34718127668293
8.21,0.1143919009283891,0.02873703799703687,95.34574859122449
8.22,0.005914180787350415,-0.012384181100220548,95.79442917512324
8.23,-0.003953001666156495,-0.04826961706823414,95.72695841062719
8.24,-0.06949928510730953,-0.0656505044424819,95.35699371864051
8.25,-0.0567209773957804,-0.0841789607217694,94.70590084125361
8.26,-0.10139908925047939,-0.08011465418308698,93.98789945574146
8.27,-0.07066373521051843,-0.09168597397557104,93.43801272509863
8.28,-0.10660847129115074,-0.08939083616549157,92.88812599445582
8.29,-0.06542370974607842,-0.0980693260098546,92.26008562827174
8.3,-0.10431021450850161,-0.08707179066989042,91.74393427987694
8.31,-0.0631254529634293,-0.09979067936741422,91.41838784118349
8.32,-0.08865142496271891,-0.07896708527804724,91.22778293148215
8.33,-0.053840495561526834,-0.08764557512241028,91.01468776694878
8.34,-0.08690474980790558,-0.0720099487912438,90.74536696533538
8.35,-0.07182818531372731,-0.0905384050705313,90.55476205563403
8.36,-0.08748697485951001,-0.06390524339940062,90.40857539922592
8.37,-0.03643503086093079,-0.05290770805943643,90.20672536210857
8.38,-0.0567209773957804,0.00557049072654708,89.8592509249539
8.39,-0.03989773774678881,0.002677660778426064,89.27562881206305
8.4,-0.07241041036533176,0.03741552784139992,88.49015666205486
8.41,-0.02715007345902833,0.009037105127187967,87.65970400238263
8.42,-0.05034714525190016,0.022377593648274966,86.88547697979043
8.43,-0.02310514152156587,-0.008319874561538128,86.26868174102235
8.44,-0.06137877780861596,-0.03784586618078982,85.85317428300084
8.45,-0.03876393106734857,-0.07896708527804724,85.69630475554752
8.46,-0.07645534230279422,-0.06622428889500177,85.77502064745958
8.47,-0.04164441290160214,-0.08590031407932901,85.92064504749689
8.48,-0.07008151015891398,-0.06854333439060291,86.03309632165697
8.49,-0.07761979240600311,-0.16233318469208016,86.2012109765263
8.5,-0.14025495058913393,-0.15190943380463584,86.30241712327039
8.51,0.6086090394692569,0.499455458233026,86.34683537656362
8.52,1.2350831949956396,0.952816898780289,86.41430614105967
8.53,0.3092840760970349,0.37786096966985666,86.43679639589169
8.54,-0.1002346391472705,0.0345226978932789,86.40306101364366
8.55,-0.03177723044809523,-0.06854333439060291,86.22370123135832
8.56,-0.0677526099524962,-0.07315751769628355,85.97687068457694
8.57,-0.04339108805641548,-0.10210972486301537,85.71879501037954
8.58,-0.06949928510730953,-0.07954086973056711,85.33702293460604
8.59,-0.038181706015744124,-0.09979067936741422,84.80962645879524
8.6,-0.06079655275701151,-0.07375520983432508,84.39468125714453
8.61,-0.031225648820259442,-0.08821935957493016,84.0916250732831
8.62,-0.05904987760219818,-0.06737185780004151,83.75539576354443
8.63,-0.03235945549969968,-0.08590031407932901,83.37362368777094
8.64,-0.05963210265380262,-0.05462906141699605,83.07056750390952
8.65,-0.02889674861384166,-0.06737185780004151,82.8012467022961
8.66,-0.053258270509922385,-0.03669829727575008,82.46501739255744
8.67,-0.012655734016454513,-0.04422921821507338,82.07200018936794
8.68,-0.020194016263543644,-0.0036817835703358386,81.60082935063718
8.69,0.03376905299305781,-0.008319874561538128,81.16339389415445
8.7,0.037231759878915825,0.04320118773764195,81.03969749257836
8.71,0.11264522577357577,0.05826302961628856,81.43271469576786
8.72,0.12713956521614958,0.11674122840227208,82.70060281192282
8.73,0.19385029876051152,0.12080553494095449,85.07894726040864
8.74,0.16774210170961745,0.14511965111648403,88.07521146040413
8.75,0.17819150921472882,0.11788879730731182,90.94721700245273
8.76,0.09989756148581529,0.105169908609788,93.22491756056527
8.77,0.05871279994074297,0.03509648234579877,94.65023746054436
8.78,-0.03352390560290857,0.0038491373689874676,95.32325833639248
8.79,-0.06137877780861596,-0.06275767449436088,95.4801278638458
8.8,-0.11414675353823986,-0.0534814925119563,95.34574859122449
8.81,-0.1054746646117105,-0.08764557512241028,94.99771189769903
8.82,-0.14200162574394726,-0.07086237988620406,94.49280567672024
8.83,-0.12226726083693344,-0.09921689491489435,93.88725556536818
8.84,-0.1536154833522675,-0.07026468774816252,93.10178341535998
8.85,-0.12284948588853789,-0.09632406496677333,92.29382101051976
8.86,-0.14895768293943193,-0.0720099487912438,91.58706475242361
8.87,-0.11880455395107542,-0.09517649606173359,91.01468776694878
8.88,-0.1437483008987606,-0.07143616433872393,90.57725231046605
8.89,-0.10489243956010606,-0.08647409853184888,90.35291201851668
8.9,-0.12401393599174677,-0.05233392360691656,90.30793150885265
8.91,-0.09036745669376359,-0.07258373324376367,90.33042176368465
8.92,-0.11764010384786654,-0.049441093658795544,90.07234608948727
8.93,-0.08399362454988335,-0.06854333439060291,89.63434837663372
8.94,-0.10951959654917297,-0.03841965063330969,89.15193241048696
8.95,-0.08748697485951001,-0.0656505044424819,88.53513717171889
8.96,-0.11705787879626209,-0.04016491167639097,87.71592963946266
8.97,-0.08978523164215914,-0.06969090329564266,86.8629867249584
8.98,-0.1112662717039863,-0.03959112722387109,86.15623046686227
8.99,-0.09386080700339025,-0.06854333439060291,85.60634373621944
9.0,-0.12171567920909765,-0.04248395717199211,85.27011442648079
9.01,-0.09848796399245716,-0.07315751769628355,85.18015340715273
9.02,-0.12343171094014233,-0.04422921821507338,85.23637904423276
9.03,-0.09677193226141248,-0.07143616433872393,85.32577780719004
9.04,-0.12401393599174677,-0.03901734277135122,85.57260835397142
9.05,-0.09735415731301693,-0.07086237988620406,85.81943890075281
9.06,-0.12401393599174677,-0.04073869612891084,86.03309632165697
9.07,-0.09965241409566605,-0.08011465418308698,86.25743661360634
9.08,-0.12867173640458232,-0.045950571572633,86.35808050397962
9.09,-0.10198131430208383,-0.07315751769628355,86.34683537656362
9.1,-0.12055122910588877,-0.04191017271947224,86.24619148619034
9.11,-0.0956074821582036,-0.07490277873936482,86.03309632165697
9.12,-0.12401393599174677,-0.03959112722387109,85.74128526521156
9.13,-0.0944430320549947,-0.07375520983432508,85.2813595538968
9.14,-0.10777292139435962,-0.03437925178014893,84.78769846033403
9.15,-0.06137877780861596,-0.04363152607703185,84.3609458748965
9.16,-0.0463022133144377,-0.007172305656498386,83.94600067324578
9.17,0.007660855942163749,-0.016424579953381306,83.51981034417905
9.18,0.00300305552932819,0.05362493862508627,83.08181263132552
9.19,0.007078630890559304,0.006144275179066952,82.71184793933884
9.2,-0.054422720613131276,0.02527042359639598,82.31883073614934
9.21,-0.03235945549969968,-0.024529285345224482,81.93762091674664
9.22,-0.073544217044772,-0.012384181100220548,81.63456473288521
9.23,-0.06484148469447397,-0.07315751769628355,81.30901829419176
9.24,-0.10081686419887494,-0.04363152607703185,81.01776949411715
9.25,-0.07936646756081644,-0.07722182423496596,80.91656334737306
9.26,-0.12401393599174677,-0.09979067936741422,80.68097792800768
9.27,-0.13446334349685812,-0.1692903211788836,80.38916687156227
9.28,0.3783237098478146,0.3726490942261345,80.14233632478087
9.29,1.20955722299635,0.83007484131208,79.92924116024751
9.3,0.4514082755360568,0.4948173672418237,79.6599203586341
9.31,-0.10893737149756852,-0.008893659014058,79.36810930218869
9.32,-0.11764010384786654,-0.011786488962179015,79.17750439248734
9.33,-0.07761979240600311,-0.08475274517428927,79.02007260866321
9.34,-0.10660847129115074,-0.04537678712011313,78.89693846345791
9.35,-0.07529089219958533,-0.08011465418308698,78.71757868117258
9.36,-0.10198131430208383,-0.04016491167639097,78.4819932618072
9.37,-0.07241041036533176,-0.083007484131208,78.30207122315106
9.38,-0.08978523164215914,-0.0285935918839069,78.14520169569775
9.39,-0.052676045458317944,-0.06505281230444036,77.89837114891635
9.4,-0.08282917444667445,-0.026274546388305755,77.59531496505492
9.41,-0.07008151015891398,-0.060438628998759736,77.3147490360255
9.42,-0.09327858195178582,-0.01931740990150232,77.1691246359882
9.43,-0.05904987760219818,-0.04652435602515287,77.0454282344121
9.44,-0.07936646756081644,0.006741967317108483,76.92229408920682
9.45,-0.03468835570611746,-0.0285935918839069,76.73168917950547
9.46,-0.037017255912535234,0.03798931229391979,76.49554150376929
9.47,0.02678235237380447,0.02352516255331471,76.42863299564404
9.48,0.04188956029175138,0.0964675110799033,77.01169285216407
9.49,0.09407531096977084,0.0791105313911772,79.08754337315926
9.5,0.09989756148581529,0.14858626551712492,82.96992361353624
9.51,0.163697169772155,0.12427214934159538,87.5140796023453
9.52,0.15091886206062585,0.17232659724013458,91.37396958789026
9.53,0.17993818436954215,0.1300578092378374,93.88725556536818
9.54,0.10743584373290442,0.13526968468155956,95.32325833639248
9.55,0.08016319657880147,0.03973457333700106,95.88439019445131
9.56,-0.009162383706827844,0.03337512898823916,95.86189993961929
9.57,-0.030643423768654997,-0.03437925178014893,95.50261811867782
9.58,-0.08166472434346557,-0.016424579953381306,94.75088135091764
9.59,-0.08108249929186112,-0.08011465418308698,93.86476531053616
9.6,-0.10951959654917297,-0.03263399073706766,92.83246261374657
9.61,-0.073544217044772,-0.08243369967868812,91.82265017178901
9.62,-0.09965241409566605,-0.029167376336426774,90.7791023475834
9.63,-0.07761979240600311,-0.08011465418308698,89.78053503304184
9.64,-0.0990701890440616,-0.026274546388305755,89.00630801044964
9.65,-0.06949928510730953,-0.07258373324376367,88.43393102497481
9.66,-0.09094968174536804,-0.010065135604619403,88.0302309507401
9.67,-0.06137877780861596,-0.05869336795567846,87.7721552765427
9.68,-0.08399362454988335,-0.007172305656498386,87.6259686201346
9.69,-0.049764920200295715,-0.058119583503158594,87.3791380733532
9.7,-0.07182818531372731,0.009037105127187967,87.03166363619854
9.71,-0.04222663795320659,-0.04537678712011313,86.57173792488379
9.72,-0.073544217044772,0.006144275179066952,85.96562555716092
9.73,-0.04513776321122881,-0.04537678712011313,85.35951318943806
9.74,-0.07008151015891398,0.01020858171774937,84.85460696845928
9.75,-0.055587170716340166,-0.057545799050638724,84.46215202164058
9.76,-0.06717038490089175,0.007889536222148226,84.27154711193923
9.77,-0.04513776321122881,-0.04826961706823414,84.26030198452322
9.78,-0.05034714525190016,0.03509648234579877,84.28279223935523
9.79,0.023319645487946454,-0.001960430212776226,84.43966176680856
9.8,0.007078630890559304,0.04783927872884424,84.6302666765099
9.81,0.0610110567233921,0.04030835778952093,84.85460696845928
9.82,0.02273742043634201,0.08200336133929823,85.12392777007268
9.83,0.01170578787962621,0.011356150622789113,85.2813595538968
9.84,-0.008580158655223399,0.06868678050373288,85.41573882651811
9.85,-0.017865116057125863,-0.022210239849623337,85.52819010067819
9.86,-0.08108249929186112,0.0038491373689874676,85.48320959101416
9.87,-0.052676045458317944,-0.05116244701635516,85.31453267977403
9.88,-0.07296199199316755,0.0044229218215073385,85.06770213299264
9.89,-0.05616939576794461,-0.06333145894688075,84.77645333291801
9.9,-0.11414675353823986,-0.07432899428684495,84.34970074748048
9.91,-0.09094968174536804,-0.11774535119418185,83.86728478133372
9.92,0.5465254629139619,0.5116244701635516,83.38486881518695
9.93,1.2878511707252636,0.7808489168229794,82.95867848612022
9.94,0.29767021848871467,0.28813542590706187,82.53248815705349
9.95,-0.07703756735439866,-0.02278402430214321,82.10573557161597
9.96,-0.08574029970469668,0.0032514452309459355,81.7470160070453
9.97,-0.04280886300481103,-0.07026468774816252,81.37648905868781
9.98,-0.08108249929186112,-0.01931740990150232,81.06218774741038
9.99,-0.052093820406713495,-0.06679807334752164,80.79286694579697
