time_s,ECG,NIBP
0.0,-0.09611408187240728,-1.343581877319778
0.01,-0.09674059237540993,-1.4049821244015959
0.02,-0.09703542084741118,-1.374282000860687
0.03,-0.09522959645640353,-1.4049821244015959
0.04,-0.09825158829441634,-1.2821816302379603
0.05,-0.09873068456141837,-1.374282000860687
0.06,-0.10024168048042477,-1.343581877319778
0.07,-0.1031531116414371,-1.374282000860687
0.08,-0.10588027500744866,-1.343581877319778
0.09,-0.10742812448545522,-1.4356822479425049
0.1,-0.1103027020874674,-1.374282000860687
0.11,-0.11443030069548489,-1.4356822479425049
0.12,-0.11689948914849535,-1.3128817537788693
0.13,-0.11947923827850629,-1.4049821244015959
0.14,-0.12161674470051534,-1.2821816302379603
0.15,-0.12773443549454128,-1.343581877319778
0.16,-0.13230427681056062,-1.2821816302379603
0.17,-0.1353631222075736,-1.4049821244015959
0.18,-0.13915903878458968,-1.374282000860687
0.19,-0.1379428713375845,-1.4049821244015959
0.2,-0.13809028557358516,-1.253287396317105
0.21,-0.14236529841760326,-1.4356822479425049
0.22,-0.14722996820562387,63.139318785929305
0.23,-0.14693513973362263,80.71784834752974
0.24,-0.14280754112560515,81.05374381685968
0.25,-0.14144395944259935,81.47993376719229
0.26,-0.1435814658646084,81.17473842140326
0.27,-0.1477090644726259,81.02304369331877
0.28,-0.15062049563363825,81.02304369331877
0.29,-0.14892523191963106,81.02304369331877
0.3,-0.14601380075861872,81.17473842140326
0.31,-0.1454241438146162,80.68714822398883
0.32,-0.14800389294462715,80.04605740886984
0.33,-0.14741423600062464,79.49706696437359
0.34,-0.1484829892116292,78.52008067992466
0.35,-0.151504981049642,76.71960872873136
0.36,-0.15320024476364918,75.80402269136425
0.37,-0.15076790986963887,74.85773653045624
0.38,-0.14512931534261497,74.43154658012362
0.39,-0.1466403112616214,73.72905551792283
0.4,-0.151984077316644,73.3028655675902
0.41,-0.1542689979746537,72.84416960409662
0.42,-0.15563257965765948,72.53897425830759
0.43,-0.15076790986963887,72.08208418443407
0.44,-0.14634548278962012,71.50058772677684
0.45,-0.1482987214166284,71.28749275161054
0.46,-0.15043622783863747,71.04369765290332
0.47,-0.15946534979367571,70.46400708486615
0.48,-0.16340868060669242,69.79221614620627
0.49,-0.16433001958169632,69.24322570171002
0.5,-0.16374036263769384,68.96873047946188
0.51,-0.1466403112616214,68.75563550429558
0.52,-0.12253808367551924,68.51003451596831
0.53,-0.12497041856952955,68.45044015850654
0.54,-0.13993296352359297,68.08384456563569
0.55,-0.15349507323565043,67.74794909630575
0.56,-0.15976017826567698,67.31995325635307
0.57,-0.15684874710466465,66.92446342956137
0.58,-0.15320024476364918,66.92446342956137
0.59,-0.1542689979746537,66.83236305893864
0.6,-0.17700764387775006,66.64996820731324
0.61,-0.23239854305498478,66.19127224381965
0.62,0.03235742480213711,66.09917187319694
0.63,0.9967045031592234,65.97817726865335
0.64,1.825393630836735,65.76327640386698
0.65,1.2338203017662281,65.58088155224159
0.66,0.15456382644665495,65.79397652740789
0.67,-0.13153035207155736,65.33708645353437
0.68,-0.07812954508033107,65.03189110774534
0.69,-0.09290782223939369,64.51360078679
0.7,-0.12725533922753923,64.14700519391914
0.71,-0.12574434330853282,64.05490482329641
0.72,-0.11962665251450691,63.811109724589194
0.73,-0.1171943176204966,63.62871487296379
0.74,-0.11155572309347271,63.41381400817743
0.75,-0.10116301945542867,63.23141915655203
0.76,-0.09169165479238854,63.32351952717476
0.77,-0.0810409762413434,63.20071903301112
0.78,-0.06530450654827673,62.9569239343039
0.79,-0.05494865646923284,62.86482356368118
0.8,-0.03983869727916881,62.59032834143305
0.81,-0.020306311009086045,62.498227970810326
0.82,-0.001363581683005778,62.498227970810326
0.83,0.02517098079710666,61.82824292177049
0.84,0.06272475741826579,61.644042180525034
0.85,0.10514320382744553,61.18715210665151
0.86,0.151504981049642,61.30814671119509
0.87,0.21452456693990904,60.91265688440338
0.88,0.2856519358102104,60.941551118324234
0.89,0.3642237235985434,60.78985639023975
0.9,0.4475496204978965,60.78985639023975
0.91,0.5181978931011958,62.13343826755953
0.92,0.5784534620664512,74.85773653045624
0.93,0.6089682089185805,85.72196848469788
0.94,0.5813648932274635,94.96992922899169
0.95,0.4817128696910412,100.73794067544245
0.96,0.33127664185240374,102.2025171573058
0.97,0.17700764387775006,101.68422683635046
0.98,0.0496048904142102,100.92033552706785
0.99,-0.03784860509316038,100.76864079898336
1.0,-0.094160843245399,100.58444005773791
1.01,-0.12205898740851721,99.97404936615983
1.02,-0.13993296352359297,99.76095439099352
1.03,-0.14969915665863434,99.30225842749995
1.04,-0.151504981049642,98.66297350200102
1.05,-0.14969915665863434,96.73970105664408
1.06,-0.14722996820562387,94.35953853741361
1.07,-0.14557155805061686,91.94867589464224
1.08,-0.14512931534261497,89.62810773287353
1.09,-0.1426601268896045,87.1883508561813
1.1,-0.1411491309705981,85.14227791666072
1.11,-0.13565795067957484,83.73910168187918
1.12,-0.13764804286558327,82.57972054580486
1.13,-0.13853252828158702,81.60273426135593
1.14,-0.13915903878458968,81.20543854494417
1.15,-0.14144395944259935,81.08444394040059
1.16,-0.14387629433660967,81.08444394040059
1.17,-0.1477090644726259,80.71784834752974
1.18,-0.14722996820562387,80.35125275465889
1.19,-0.1501413993666362,79.64876169245808
1.2,-0.1541215837386531,78.52008067992466
1.21,-0.151984077316644,77.36069954385034
1.22,-0.15349507323565043,76.1399181606942
1.23,-0.15625909016066214,75.9575233090688
1.24,-0.1542689979746537,76.01892355615061
1.25,-0.156701332868664,75.89612306198698
1.26,-0.1585440108186718,75.255032246868
1.27,-0.16097634571268213,75.1033375187835
1.28,-0.1616028562156848,75.19363199978618
1.29,-0.15699616134066527,75.07263739524261
1.3,-0.1589862535266737,75.13223175270437
1.31,-0.16020242097367884,75.13223175270437
1.32,-0.15913366776267432,75.16293187624528
1.33,-0.1606815172406809,75.07263739524261
1.34,-0.1585440108186718,80.2302581501153
1.35,-0.16005500673767822,81.02304369331877
1.36,-0.15883883929067308,81.05374381685968
1.37,-0.15791750031566917,80.99234356977786
1.38,-0.1599075925016776,80.50475337236342
1.39,-0.1589862535266737,79.86366255724444
1.4,-0.1583965965826712,78.97877664341824
1.41,-0.1542689979746537,78.06319060605114
1.42,-0.15563257965765948,76.9941039509795
1.43,-0.15732784337166666,76.04781779007148
1.44,-0.1327465195185625,75.28573237040891
1.45,-0.10927080243546303,74.30874608595998
1.46,-0.11443030069548489,73.75975564146373
1.47,-0.13016677038855157,73.27216544404929
1.48,-0.1443553906036117,72.53897425830759
1.49,-0.1452767295786156,72.02068393735225
1.5,-0.1411491309705981,71.71548859156321
1.51,-0.13960128149259154,71.28749275161054
1.52,-0.13488402594057156,70.92089715873969
1.53,-0.14877781768363044,70.86130280127792
1.54,-0.2072275622578781,70.18951186261803
1.55,-0.013267281240056219,70.00531112137259
1.56,0.8827164451717404,69.33532607233275
1.57,1.8531812143228528,68.87663010883917
1.58,1.466218844821213,68.84592998529826
1.59,0.33861050009343485,68.41974003496564
1.6,-0.0741493607083142,68.1145446891766
1.61,-0.0421236179371785,67.65584872568301
1.62,-0.05295856428322441,67.3813535034349
1.63,-0.09246557953139181,67.16825852826858
1.64,-0.09368174697839697,67.01475791056404
1.65,-0.08605306026536465,66.89376330602046
1.66,-0.07997222303033888,66.92446342956137
1.67,-0.07521811391931874,66.83236305893864
1.68,-0.0669997702622839,66.92446342956137
1.69,-0.056607066624239866,66.4964675896087
1.7,-0.0496048904142102,66.43506734252688
1.71,-0.03843826203716288,66.16057212027876
1.72,-0.024102227586102132,65.70368204640522
1.73,-0.008992268396038105,65.6115816757825
1.74,0.008992268396038105,65.4291868241571
1.75,0.030514746852129303,65.36778657707528
1.76,0.05476438867423206,65.39848670061619
1.77,0.08726922771236979,64.9397907371226
1.78,0.12589175754453347,64.9397907371226
1.79,0.17332228797773444,64.51360078679
1.8,0.23483087794899507,64.14700519391914
1.81,0.306547903763299,64.08560494683732
1.82,0.38939470439565005,64.51360078679
1.83,0.47102533758099596,64.48290066324908
1.84,0.5441427986373057,64.57319514425176
1.85,0.6021134469445514,66.25267249090147
1.86,0.6268421850336562,72.23377891251856
1.87,0.5908362578905036,80.68714822398883
1.88,0.4800544595360342,90.42269916569705
1.89,0.32714904324438626,97.8683820691775
1.9,0.18172489942977005,102.38491200893121
1.91,0.06821593770928906,103.54429314500554
1.92,-0.008697439924036855,102.62870710763843
1.93,-0.056164823916238,102.11041678668309
1.94,-0.08240455792434918,102.07971666314218
1.95,-0.09522959645640353,101.59212646572774
1.96,-0.10514320382744553,101.56142634218683
1.97,-0.10757553872145584,100.73794067544245
1.98,-0.10713329601345396,100.09684986032347
1.99,-0.10573286077144803,99.97404936615983
2.0,-0.10116301945542867,97.99118256334113
2.01,-0.10038909471642539,95.45751942640612
2.02,-0.0981041740584157,93.13875715425746
2.03,-0.09703542084741118,90.758594635027
2.04,-0.09611408187240728,88.9888228073746
2.05,-0.09382916121439759,86.54726004106232
2.06,-0.09397657545039823,86.36305929981687
2.07,-0.09504532866140275,86.36305929981687
2.08,-0.09537701069240416,86.11926420110964
2.09,-0.09825158829441634,86.21136457173237
2.1,-0.10009426624442415,86.05786395402784
2.11,-0.10208435843043258,85.6009738801543
2.12,-0.10621195703845007,85.29577853436527
2.13,-0.10742812448545522,84.44159274407998
2.14,-0.11107662682647068,82.97521037259656
2.15,-0.11321413324847973,81.63343438489684
2.16,-0.11443030069548489,80.10745765595166
2.17,-0.11612556440949208,79.80226231016263
2.18,-0.11734173185649723,79.98465716178802
2.19,-0.11855789930350238,79.22257174212547
2.2,-0.11763656032849848,78.45868043284285
2.21,-0.11413547222348364,77.57379451901664
2.22,-0.11642039288149332,77.57379451901664
2.23,-0.11564646814249005,77.60449464255755
2.24,-0.1153516396704888,77.66589488963938
2.25,-0.11564646814249005,80.96164344623695
2.26,-0.11689948914849535,81.57203413781502
2.27,-0.11671522135349457,81.57203413781502
2.28,-0.11704690338449598,81.45103953327144
2.29,-0.11597815017349145,81.78512911298134
2.3,-0.11428288645948427,81.60273426135593
2.31,-0.11369322951548176,81.45103953327144
2.32,-0.1138406437514824,81.1151440639415
2.33,-0.11564646814249005,80.68714822398883
2.34,-0.11336154748448037,79.7101619395399
2.35,-0.11336154748448037,78.7945759021728
2.36,-0.11490939696248692,77.0248040745204
2.37,-0.11321413324847973,76.04781779007148
2.38,-0.11306671901247911,75.31643249394982
2.39,-0.11137145529847192,74.73674192591265
2.4,-0.11107662682647068,74.40084645658271
2.41,-0.1106343841184688,74.00355074017095
2.42,-0.108791706168461,73.66765527084101
2.43,-0.10956563090746428,72.78276935701481
2.44,-0.1082020492244585,72.47757401122577
2.45,-0.1072807102494546,72.02068393735225
2.46,-0.1082020492244585,72.02068393735225
2.47,-0.1072807102494546,71.37959312223326
2.48,-0.10359535434943898,71.34889299869236
2.49,-0.10514320382744553,70.830602677737
2.5,-0.10499578959144491,70.55610745548888
2.51,-0.10543803229944679,70.06671136845439
2.52,-0.11078179835446943,70.0974114919953
2.53,-0.10941821667146365,69.60982129458087
2.54,-0.1153516396704888,69.57912117103996
2.55,-0.10956563090746428,68.87663010883917
2.56,-0.08225714368834856,68.84592998529826
2.57,-0.06821593770928906,68.41974003496564
2.58,-0.07857178778833294,68.08384456563569
2.59,-0.09202333682338994,67.65584872568301
2.6,-0.1013104336914293,67.31995325635307
2.61,-0.10178952995843132,66.95516355310228
2.62,-0.0981041740584157,66.98405778702313
2.63,-0.09522959645640353,66.40436721898597
2.64,-0.09703542084741118,66.4964675896087
2.65,-0.15699616134066527,66.43506734252688
2.66,-0.10145784792742991,66.19127224381965
2.67,0.567323687248404,65.79397652740789
2.68,1.6773897378921079,65.70368204640522
2.69,1.7561457934754416,65.64228179932341
2.7,0.6852550760489037,65.39848670061619
2.71,0.01662095510907043,65.27568620645255
2.72,-0.018021390351076364,65.09329135482716
2.73,-0.008697439924036855,64.84949625611993
2.74,-0.05281115004722378,64.5443009103309
2.75,-0.06471484960427422,64.48290066324908
2.76,-0.06073466523225736,64.11630507037823
2.77,-0.056459652388239245,63.68830923042556
2.78,-0.05218463954422113,63.35241376109561
2.79,-0.046840873489198485,63.26211928009294
2.8,-0.03876994406816429,63.26211928009294
2.81,-0.02929857940512415,63.29281940363385
2.82,-0.018905875767080114,62.98762405784481
2.83,-0.008992268396038105,62.407933489807654
2.84,0.0006265105030026548,62.407933489807654
2.85,0.013119867004055595,62.28513299564401
2.86,0.027787583486117748,62.102738144018616
2.87,0.053253392755225656,61.94923752631407
2.88,0.08284680063235106,62.072038020477706
2.89,0.11505681119848754,61.674742304065944
2.9,0.1518366630806434,61.21785223019242
2.91,0.20402130262486454,61.18715210665151
2.92,0.26763054545913406,61.61334205698412
2.93,0.34119024922344576,61.58264193344322
2.94,0.4154870241677606,63.87250997167101
2.95,0.4890467279320723,70.55610745548888
2.96,0.5532824812693445,71.28749275161054
2.97,0.5940425175235172,71.13579802352605
2.98,0.6024082754165526,80.1995580265744
2.99,0.5499288074003302,90.26919854799252
3.0,0.43107607962482664,98.47877276075556
3.01,0.2847305968352065,103.2390977992165
3.02,0.1527580020556473,103.69779376271008
3.03,0.04927320838320879,102.8743080959657
3.04,-0.02074855371708792,102.11041678668309
3.05,-0.06471484960427422,101.56142634218683
3.06,-0.08634788873736589,101.2869311199387
3.07,-0.09368174697839697,100.85893527998603
3.08,-0.09932034150542086,100.06614973678256
3.09,-0.09917292726942024,99.97404936615983
3.1,-0.0997994377724229,98.6015732549192
3.11,-0.10330052587743772,95.82411501927697
3.12,-0.10252660113843445,93.16945727779837
3.13,-0.10543803229944679,90.72789451148608
3.14,-0.10330052587743772,88.65292733804466
3.15,-0.10451669332444288,85.44747326244976
3.16,-0.11000787361546616,84.53188722508266
3.17,-0.10893912040446162,83.9828967805864
3.18,-0.10606454280244944,84.04429702766822
3.19,-0.11796824235949988,83.64700131125646
3.2,-0.12419649383052628,83.64700131125646
3.21,-0.12666568228353672,83.61630118771555
3.22,-0.1304615988605528,83.25151148446474
3.23,-0.1318251805435586,82.36662557063855
3.24,-0.13580536491557546,82.06143022484952
3.25,-0.1374637750705825,80.68714822398883
3.26,-0.1335204442575658,79.67946181599899
3.27,-0.13580536491557546,79.49706696437359
3.28,-0.14601380075861872,79.5277670879145
3.29,-0.1527580020556473,79.43566671729177
3.3,-0.15533775118565823,78.76387577863188
3.31,-0.15121015257764076,77.66589488963938
3.32,-0.15062049563363825,76.90380946997682
3.33,-0.15441641221065433,76.38371325940142
3.34,-0.15655391863266338,76.38371325940142
3.35,-0.1583965965826712,76.32411890193966
3.36,-0.16355609484269307,76.32411890193966
3.37,-0.16204509892368665,79.86366255724444
3.38,-0.16097634571268213,80.99234356977786
3.39,-0.16539877279270088,81.08444394040059
3.4,-0.1658778690597029,81.05374381685968
3.41,-0.16388777687369446,80.96164344623695
3.42,-0.16569360126470212,80.74854847107065
3.43,-0.16783110768671117,79.95395703824713
3.44,-0.16388777687369446,79.58916733499632
3.45,-0.1660252832957035,78.76387577863188
3.46,-0.1688998608977157,78.06319060605114
3.47,-0.17136904935072617,76.78100897581318
3.48,-0.16801537548171194,76.41441338294233
3.49,-0.16661494023970602,75.52952746911613
3.5,-0.16694662227070742,74.76744204945356
3.51,-0.17122163511472555,73.91325625916828
3.52,-0.17608630490274615,73.3028655675902
3.53,-0.15227890578864528,72.78276935701481
3.54,-0.12298032638352112,71.6847884680223
3.55,-0.13108810936355547,71.25679262806963
3.56,-0.15548516542165886,71.34889299869236
3.57,-0.16952637140071836,70.79990255419611
3.58,-0.1707425388477235,70.89200292481883
3.59,-0.16709403650670804,70.31050646716162
3.6,-0.16661494023970602,70.12811161553621
3.61,-0.16676235447570664,69.27392582525093
3.62,-0.20295254941385998,68.90733023238008
3.63,-0.2325459572909854,68.41974003496564
3.64,0.17715505811375068,68.1145446891766
3.65,1.2348890549772327,67.89964382439024
3.66,1.787397611507574,67.96104407147206
3.67,0.9257614020839229,67.99174419501297
3.68,-0.016952637140071836,67.68654884922393
3.69,-0.13960128149259154,67.2296587753504
3.7,-0.07978795523533809,66.89376330602046
3.71,-0.10801778142945771,66.74026268831591
3.72,-0.13396268696556765,66.52716771314961
3.73,-0.12909801717754704,66.52716771314961
3.74,-0.1252652470415308,66.46576746606779
3.75,-0.12006889522250878,66.00887739219426
3.76,-0.11336154748448037,65.67298192286431
3.77,-0.1022317726664332,65.6115816757825
3.78,-0.08527913552636136,65.4291868241571
3.79,-0.07812954508033107,65.24498608291164
3.8,-0.06773684144228703,65.27568620645255
3.81,-0.05034196159421332,64.9397907371226
3.82,-0.03173091429913446,64.97049086066352
3.83,-0.01297245276805497,64.87839049004079
3.84,0.01039270363804404,64.60389526779267
3.85,0.040907450490173344,64.48290066324908
3.86,0.08177804742134653,64.05490482329641
3.87,0.12773443549454128,63.99350457621459
3.88,0.179587393007761,63.780409601048284
3.89,0.24139081145102287,63.71900935396646
3.9,0.3196677707673546,63.35241376109561
3.91,0.4083374337217303,63.23141915655203
3.92,0.4928426445090884,64.0242046997555
3.93,0.5609111679823768,63.99350457621459
3.94,0.6098895478935844,64.11630507037823
3.95,0.6224197579536375,63.99350457621459
3.96,0.560468925274375,64.11630507037823
3.97,0.42875430540781684,64.08560494683732
3.98,0.2671883027511322,64.11630507037823
3.99,0.12268549791151986,69.1818254546282
4.0,0.012825038532054345,77.39139966739125
4.01,-0.057823234071245025,86.91204974431312
4.02,-0.10237918690243382,95.42681930286521
4.03,-0.12541266127753142,100.82823515644512
4.04,-0.13624760762357735,101.25623099639779
4.05,-0.1393064530205903,100.09684986032347
4.06,-0.1387167960765878,98.6015732549192
4.07,-0.13672670389057937,98.50947288429647
4.08,-0.13458919746857032,96.25211085922965
4.09,-0.13215686257456,93.32115200588287
4.1,-0.13304134799056375,90.60509401732246
4.11,-0.1336678584935664,88.16353125101017
4.12,-0.1303141846245522,86.18066444819146
4.13,-0.13016677038855157,84.56258734862357
4.14,-0.12895060294154642,83.61630118771555
4.15,-0.1304615988605528,82.79281552097116
4.16,-0.13215686257456,82.73141527388935
4.17,-0.13624760762357735,82.76211539743025
4.18,-0.13960128149259154,82.36662557063855
4.19,-0.14343405162860778,81.81582923652225
4.2,-0.1426601268896045,81.60273426135593
4.21,-0.14406056213161045,79.64876169245808
4.22,-0.14616121499461934,78.39908607538108
4.23,-0.14800389294462715,77.63519476609846
4.24,-0.14999398513063558,76.47581363002415
4.25,-0.1518366630806434,76.29341877839875
4.26,-0.15364248747165105,76.38371325940142
4.27,-0.15699616134066527,76.38371325940142
4.28,-0.15732784337166666,75.98822343260971
4.29,-0.1524263200246459,75.9575233090688
4.3,-0.1527580020556473,76.04781779007148
4.31,-0.15718042913566604,75.9575233090688
4.32,-0.15699616134066527,75.9575233090688
4.33,-0.1557799938936601,75.9575233090688
4.34,-0.1580649145516698,75.9575233090688
4.35,-0.15883883929067308,75.9575233090688
4.36,-0.1583965965826712,81.96932985422679
4.37,-0.15699616134066527,82.33592544709764
4.38,-0.15718042913566604,82.0307301013086
4.39,-0.15592740812966074,81.45103953327144
4.4,-0.15699616134066527,80.77924859461154
4.41,-0.15456382644665495,80.2302581501153
4.42,-0.155042922713657,79.61986745853723
4.43,-0.15732784337166666,78.36838595184018
4.44,-0.15684874710466465,77.69659501318029
4.45,-0.15592740812966074,76.75030885227227
4.46,-0.15684874710466465,76.04781779007148
4.47,-0.13429436899656907,75.13223175270437
4.48,-0.11262447630447724,74.73674192591265
4.49,-0.1171943176204966,73.97285061663004
4.5,-0.13411010120156827,73.60806091337925
4.51,-0.14601380075861872,73.21076519696749
4.52,-0.14785647870862653,72.60037450538941
4.53,-0.14144395944259935,72.08208418443407
4.54,-0.13915903878458968,71.56198797385866
4.55,-0.13473661170457094,71.19539238098781
4.56,-0.15257373426064652,70.89200292481883
4.57,-0.21223964628189934,70.830602677737
4.58,0.017837122556075582,70.46400708486615
4.59,0.961914743463076,70.06671136845439
4.6,1.8818532832249741,69.79221614620627
4.61,1.4056315938249562,69.1818254546282
4.62,0.2993614597582685,69.1818254546282
4.63,-0.07050085836729875,68.81522986175735
4.64,-0.04028093998717069,68.41974003496564
4.65,-0.06058725099625673,67.99174419501297
4.66,-0.09795675982241508,67.96104407147206
4.67,-0.09965202353642227,67.65584872568301
4.68,-0.0947505001894015,67.26035889889131
4.69,-0.09047548734538338,67.56555424468034
4.7,-0.08362072537135434,67.31995325635307
4.71,-0.07613945289432264,67.2296587753504
4.72,-0.06578360281527876,66.92446342956137
4.73,-0.056607066624239866,66.43506734252688
4.74,-0.04805704093620364,66.46576746606779
4.75,-0.0361533413791532,66.3447728615242
4.76,-0.022443817431095105,66.43506734252688
4.77,-0.007002176210029671,66.43506734252688
4.78,0.013893791743058874,66.19127224381965
4.79,0.03862252983216366,66.06847174965603
4.8,0.06758942720628641,65.73438216994613
4.81,0.10499578959144491,65.24498608291164
4.82,0.1524263200246459,64.97049086066352
4.83,0.21257132831290076,64.81879613257902
4.84,0.2851728395432084,64.57319514425176
4.85,0.3660664015485512,65.21428595937074
4.86,0.4429797791818771,68.63283501013194
4.87,0.5160603866791867,76.65820848164954
4.88,0.5708247753534188,77.20900481576585
4.89,0.5947795887035203,77.14760456868403
4.9,0.5583314188523659,86.69895476914681
4.91,0.4499819553919068,95.9469155134406
4.92,0.3010567234722757,102.99530270050928
4.93,0.15791750031566917,105.83416118323333
4.94,0.04392944232818615,105.61926031844696
4.95,-0.03294708174613961,105.16237024457344
4.96,-0.0801196372663395,104.91857514586623
4.97,-0.10834946346045912,104.8264747752435
4.98,-0.12298032638352112,104.8264747752435
4.99,-0.12666568228353672,104.40028482491088
5.0,-0.12954025988554893,103.69779376271008
5.01,-0.12876633514654565,102.11041678668309
5.02,-0.12755016769954047,99.42505892166358
5.03,-0.12681309651953737,96.61690056248044
5.04,-0.1255969290725322,92.31527148751309
5.05,-0.12146933046451472,90.45339928923796
5.06,-0.12146933046451472,89.72020810349626
5.07,-0.12161674470051534,89.171217659
5.08,-0.12113764843351331,88.77392194258825
5.09,-0.12054799148951081,88.74322181904733
5.1,-0.12161674470051534,88.4073263497174
5.11,-0.1237542511225244,88.31703186871472
5.12,-0.12755016769954047,88.04253664646659
5.13,-0.12968767412154955,87.43214595488851
5.14,-0.13304134799056375,87.12695060909948
5.15,-0.13411010120156827,86.05786395402784
5.16,-0.13853252828158702,84.92918294149442
5.17,-0.1402277919955942,83.61630118771555
5.18,-0.14221788418160264,82.3955198045594
5.19,-0.14372888010060905,81.14584418748241
5.2,-0.1482987214166284,81.08444394040059
5.21,-0.1509153241056395,81.02304369331877
5.22,-0.1477090644726259,80.71784834752974
5.23,-0.1466403112616214,80.32055263111798
5.24,-0.14984657089463496,80.35125275465889
5.25,-0.15168924884464277,80.2302581501153
5.26,-0.1492200603916323,80.25915238403616
5.27,-0.15121015257764076,80.28985250757707
5.28,-0.151984077316644,80.68714822398883
5.29,-0.156701332868664,81.02304369331877
5.3,-0.1589862535266737,81.45103953327144
5.31,-0.15611167592466152,82.15172470585219
5.32,-0.1557799938936601,83.61630118771555
5.33,-0.15684874710466465,83.19011123738292
5.34,-0.15699616134066527,82.85421576805298
5.35,-0.15777008607966853,81.45103953327144
5.36,-0.16038668876867962,80.71784834752974
5.37,-0.16005500673767822,79.95395703824713
5.38,-0.15824918234667057,79.22257174212547
5.39,-0.15625909016066214,78.33768582829927
5.4,-0.1541215837386531,77.63519476609846
5.41,-0.1585440108186718,76.78100897581318
5.42,-0.15946534979367571,76.32411890193966
5.43,-0.156701332868664,75.83472281490516
5.44,-0.15625909016066214,75.52952746911613
5.45,-0.15533775118565823,74.94983690107897
5.46,-0.15168924884464277,75.16293187624528
5.47,-0.15257373426064652,75.13223175270437
5.48,-0.15456382644665495,74.76744204945356
5.49,-0.156701332868664,74.33944620950089
5.5,-0.16005500673767822,73.66765527084101
5.51,-0.1655461870287015,73.11866482634476
5.52,-0.16753627921470993,72.87486972763753
5.53,-0.14328663739260716,72.3872795302231
5.54,-0.11826307083150113,72.14167854189583
5.55,-0.12253808367551924,71.95928369027042
5.56,-0.14207046994560202,71.6540883444814
5.57,-0.1599075925016776,71.6540883444814
5.58,-0.16267160942668932,71.22609250452872
5.59,-0.15519033694965761,70.43330696132524
5.6,-0.15168924884464277,70.15881173907712
5.61,-0.14800389294462715,70.03601124491348
5.62,-0.1823514099327727,69.60982129458087
5.63,-0.2237011031309479,69.33532607233275
5.64,0.16569360126470212,69.30462594879184
5.65,1.2284765357112055,68.81522986175735
5.66,1.8399139330827965,68.84592998529826
5.67,1.0276614927193546,68.38903991142473
5.68,0.05553831341323534,68.41974003496564
5.69,-0.11078179835446943,67.6251486021421
5.7,-0.06545192078427735,67.65584872568301
5.71,-0.0997994377724229,67.26035889889131
5.72,-0.12983508835755017,67.2296587753504
5.73,-0.12467559009752831,66.95516355310228
5.74,-0.11642039288149332,66.52716771314961
5.75,-0.1147619827264863,66.06847174965603
5.76,-0.10927080243546303,66.19127224381965
5.77,-0.09932034150542086,66.06847174965603
5.78,-0.09460308595340088,65.79397652740789
5.79,-0.08682698500436792,65.6115816757825
5.8,-0.07142219734230265,65.73438216994613
5.81,-0.053548221227226904,65.79397652740789
5.82,-0.03876994406816429,65.27568620645255
5.83,-0.025797491300109315,65.27568620645255
5.84,-0.006559933502027797,65.36778657707528
5.85,0.024102227586102132,64.84949625611993
5.86,0.06224566115126376,64.51360078679
5.87,0.10024168048042477,64.05490482329641
5.88,0.14372888010060905,64.08560494683732
5.89,0.2070801480218775,64.0242046997555
5.9,0.2822982619411962,63.68830923042556
5.91,0.3636340666545409,63.65760910688465
5.92,0.45060846589490944,67.89964382439024
5.93,0.5233942449202178,67.99174419501297
5.94,0.5686872689314098,68.05314444209478
5.95,0.5895832368844983,68.02244431855388
5.96,0.5502236358723316,75.71372821036158
5.97,0.43822567007085694,85.08268355919895
5.98,0.28487801107120714,95.18302420415799
5.99,0.13517885441257282,102.56911275017666
6.0,0.023180888611098228,104.36958470136997
6.01,-0.05048937583021394,104.42917905883174
6.02,-0.10024168048042477,104.09508947912184
6.03,-0.13245169104656127,103.66709363916917
6.04,-0.1454241438146162,102.96460257696837
6.05,-0.1524263200246459,100.79753503290421
6.06,-0.1557799938936601,98.26567778558926
6.07,-0.15364248747165105,94.60333363612082
6.08,-0.151504981049642,91.79517527693768
6.09,-0.1518366630806434,89.3229123870845
6.1,-0.1510627383416401,87.64524093005483
6.11,-0.15257373426064652,86.82175526331045
6.12,-0.1510627383416401,86.4551596704396
6.13,-0.15028881360263685,85.99646370694602
6.14,-0.1475616502366253,86.08856407756873
6.15,-0.14955174242263372,85.87546910240243
6.16,-0.1527580020556473,85.69126836115697
6.17,-0.15548516542165886,85.63167400369521
6.18,-0.15718042913566604,85.6009738801543
6.19,-0.1606815172406809,84.34949237345725
6.2,-0.16189768468768603,83.61630118771555
6.21,-0.16296643789869056,82.42621992810031
6.22,-0.16219251315968727,82.30522532355673
6.23,-0.16569360126470212,82.42621992810031
6.24,-0.16952637140071836,82.3955198045594
6.25,-0.17122163511472555,82.30522532355673
6.26,-0.17195870629472867,81.1151440639415
6.27,-0.1725852167977313,79.92506280432626
6.28,-0.16923154292871712,79.16117149504365
6.29,-0.17195870629472867,79.09977124796183
6.3,-0.17472272321974036,79.19187161858456
6.31,-0.17317487374173382,79.09977124796183
6.32,-0.16694662227070742,79.19187161858456
6.33,-0.17044771037572226,79.16117149504365
6.34,-0.17288004526973258,79.16117149504365
6.35,-0.17332228797773444,84.99058318857624
6.36,-0.17288004526973258,85.23437828728345
6.37,-0.16768369345071055,85.57027375661339
6.38,-0.1660252832957035,85.63167400369521
6.39,-0.17044771037572226,85.20367816374254
6.4,-0.16952637140071836,84.8677826944126
6.41,-0.1739487984807371,83.9828967805864
6.42,-0.1673888649787093,82.88491589159389
6.43,-0.1411491309705981,81.57203413781502
6.44,-0.12482300433352893,80.35125275465889
6.45,-0.1374637750705825,79.43566671729177
6.46,-0.15062049563363825,78.88667627279553
6.47,-0.16053410300468024,77.94039011188751
6.48,-0.16296643789869056,77.63519476609846
6.49,-0.15946534979367571,77.20900481576585
6.5,-0.15563257965765948,76.44511350648324
6.51,-0.1518366630806434,75.9575233090688
6.52,-0.17288004526973258,75.13223175270437
6.53,-0.2237011031309479,74.67534167883083
6.54,0.06806852347328844,74.00355074017095
6.55,1.0600189175214918,73.94215049308913
6.56,1.8571613986948696,73.97285061663004
6.57,1.2147670117631475,73.60806091337925
6.58,0.14892523191963106,73.14936494988567
6.59,-0.10801778142945771,72.84416960409662
6.6,-0.05126330056921723,72.50827413476668
6.61,-0.0744810427393156,72.32587928314128
6.62,-0.10772295295745647,72.50827413476668
6.63,-0.10680161398245257,72.08208418443407
6.64,-0.09902551303341961,71.62338822094048
6.65,-0.09080716937638479,71.71548859156321
6.66,-0.08391555384335558,71.19539238098781
6.67,-0.07720820610532717,71.19539238098781
6.68,-0.06637325975928125,71.28749275161054
6.69,-0.05446956020223081,70.79990255419611
6.7,-0.04134969319817522,70.89200292481883
6.71,-0.02671883027511322,70.43330696132524
6.72,-0.011129774818047162,70.46400708486615
6.73,0.009471364663040134,69.97641688745172
6.74,0.031288671591132584,70.06671136845439
6.75,0.05811806254324627,69.54842104749905
6.76,0.09110199784838603,69.30462594879184
6.77,0.13473661170457094,68.63283501013194
6.78,0.18599991227378815,68.90733023238008
6.79,0.2490194981640552,68.32763966434291
6.8,0.32899172119439407,68.38903991142473
6.81,0.41474995298775746,68.41974003496564
6.82,0.496528000409104,70.34120659070253
6.83,0.5679501977514066,70.34120659070253
6.84,0.6188818162896225,70.52540733194797
6.85,0.6299010304306691,70.34120659070253
6.86,0.5671762730124034,76.1706182842351
6.87,0.43671467415185056,84.80638244733078
6.88,0.27982907348818575,94.39023866095452
6.89,0.1402277919955942,102.1718170337649
6.9,0.034642345460146794,107.78632786251113
6.91,-0.03357359224914227,108.4274186776301
6.92,-0.07249095055330718,108.4274186776301
6.93,-0.09290782223939369,107.93982848021567
6.94,-0.10392703638044039,107.63463313442664
6.95,-0.10543803229944679,105.64996044198787
6.96,-0.10713329601345396,105.64996044198787
6.97,-0.10713329601345396,105.64996044198787
6.98,-0.10514320382744553,105.59036608452611
6.99,-0.10285828316943585,105.59036608452611
7.0,-0.10300569740543648,102.62870710763843
7.01,-0.10267401537443507,99.27336419357908
7.02,-0.09965202353642227,96.55550031539862
7.03,-0.09795675982241508,94.11574343870639
7.04,-0.09795675982241508,91.36898532660507
7.05,-0.09611408187240728,91.21548470890053
7.06,-0.09736710287841259,90.9409894866524
7.07,-0.10101560521942804,90.84888911602967
7.08,-0.10208435843043258,90.08680369636711
7.09,-0.10665419974645193,89.96400320220347
7.1,-0.10927080243546303,88.89672243675187
7.11,-0.11277189054047786,88.74322181904733
7.12,-0.1121453800374752,86.05786395402784
7.13,-0.11428288645948427,84.59328747216448
7.14,-0.1138406437514824,83.25151148446474
7.15,-0.11520422543448817,82.64112079288668
7.16,-0.11612556440949208,82.3955198045594
7.17,-0.11656780711749394,82.27452520001582
7.18,-0.11704690338449598,82.36662557063855
7.19,-0.1162729786454927,82.36662557063855
7.2,-0.1162729786454927,82.33592544709764
7.21,-0.1153516396704888,82.27452520001582
7.22,-0.11671522135349457,82.76211539743025
7.23,-0.11855789930350238,83.52600670671288
7.24,-0.1171943176204966,83.67770143479737
7.25,-0.1162729786454927,83.61630118771555
7.26,-0.11841048506750175,83.58560106417464
7.27,-0.11811565659550051,83.52600670671288
7.28,-0.11885272777550362,83.55670683025379
7.29,-0.11947923827850629,83.49530658317197
7.3,-0.11826307083150113,86.6682546456059
7.31,-0.11671522135349457,86.79105513976954
7.32,-0.11520422543448817,86.4551596704396
7.33,-0.11413547222348364,85.63167400369521
7.34,-0.11321413324847973,84.44159274407998
7.35,-0.11262447630447724,81.90792960714496
7.36,-0.11350896172048099,81.1151440639415
7.37,-0.11229279427347583,79.92506280432626
7.38,-0.11092921259047006,79.25327186566638
7.39,-0.10956563090746428,78.33768582829927
7.4,-0.10573286077144803,78.03249048251023
7.41,-0.10392703638044039,77.60449464255755
7.42,-0.10499578959144491,77.60449464255755
7.43,-0.10543803229944679,77.20900481576585
7.44,-0.10481152179644414,76.81170909935409
7.45,-0.10680161398245257,76.35301313586051
7.46,-0.10558544653544741,76.04781779007148
7.47,-0.10573286077144803,75.52952746911613
7.48,-0.10834946346045912,75.52952746911613
7.49,-0.10834946346045912,75.13223175270437
7.5,-0.10941821667146365,74.82703640691533
7.51,-0.11689948914849535,74.33944620950089
7.52,-0.10436927908844226,74.33944620950089
7.53,-0.0744810427393156,73.94215049308913
7.54,-0.06913727668429297,73.97285061663004
7.55,-0.08225714368834856,73.4852604192156
7.56,-0.09368174697839697,73.60806091337925
7.57,-0.10086819098342742,73.18006507342658
7.58,-0.10009426624442415,72.78276935701481
7.59,-0.09766193135041383,71.98998381381134
7.6,-0.09596666763640666,71.98998381381134
7.61,-0.1013104336914293,71.95928369027042
7.62,-0.1625241951906887,71.6847884680223
7.63,-0.05218463954422113,71.62338822094048
7.64,0.727083865514081,71.37959312223326
7.65,1.806045512361653,71.22609250452872
7.66,1.6801537548171195,70.86130280127792
7.67,0.5648913523543937,70.43330696132524
7.68,-0.0009213389750039041,70.0974114919953
7.69,-0.0080709294210342,69.97641688745172
7.7,-0.013562109712057468,69.64052141812178
7.71,-0.05631223815223862,69.27392582525093
7.72,-0.06379351062927031,69.30462594879184
7.73,-0.059813326257253455,69.24322570171002
7.74,-0.05690189509624112,68.87663010883917
7.75,-0.05281115004722378,68.41974003496564
7.76,-0.0445559528311888,68.51003451596831
7.77,-0.0364850234101546,67.99174419501297
7.78,-0.027013658747114467,68.05314444209478
7.79,-0.017542294084074334,68.08384456563569
7.8,-0.008697439924036855,68.1145446891766
7.81,0.00412759860801749,68.02244431855388
7.82,0.023033474375097604,67.68654884922393
7.83,0.0430449569121824,67.53485412113943
7.84,0.06453058180927344,67.35065337989398
7.85,0.0956718391644054,66.92446342956137
7.86,0.1309038415685547,66.12987199673785
7.87,0.1688998608977157,66.03957751573517
7.88,0.22078967196993557,66.06847174965603
7.89,0.29051660559823106,66.03957751573517
7.9,0.37019400015656867,66.98405778702313
7.91,0.4466282815228926,70.7692024306552
7.92,0.5160603866791867,70.89200292481883
7.93,0.5790799725694538,70.830602677737
7.94,0.6219406616866354,78.88667627279553
7.95,0.6175182346066167,88.83532218967007
7.96,0.5458012087923128,98.9970630817109
7.97,0.42024113327878077,105.7420608126106
7.98,0.27647539961917156,105.924455664236
7.99,0.14863040344762982,109.40440496207903
8.0,0.051558129041218474,110.38139124652795
8.01,-0.009139682632038728,110.04549577719801
8.02,-0.04197620370117787,109.98409553011619
8.03,-0.061656004207261264,109.52720545624267
8.04,-0.07750303457732842,108.45811880117101
8.05,-0.08362072537135434,106.74974722060044
8.06,-0.07905088405533497,103.42329854046196
8.07,-0.07676596339732529,99.6688540203708
8.08,-0.07798213084433045,96.95279603181038
8.09,-0.08118839047734402,94.44983301841629
8.1,-0.07871920202433356,92.89496205555025
8.11,-0.07812954508033107,92.01007614172406
8.12,-0.0810409762413434,91.73377502985588
8.13,-0.08332589689935309,91.6741806723941
8.14,-0.08697439924036855,91.6434805488532
8.15,-0.09003324463738151,91.6741806723941
8.16,-0.09003324463738151,91.18478458535962
8.17,-0.0915442405563879,91.21548470890053
8.18,-0.09581925340040602,90.81999488210882
8.19,-0.10178952995843132,90.0561035728262
8.2,-0.10665419974645193,89.35361251062541
8.21,-0.11015528785146678,87.91973615230296
8.22,-0.10787036719345709,86.4858597939805
8.23,-0.11137145529847192,85.29577853436527
8.24,-0.11350896172048099,85.26507841082436
8.25,-0.11564646814249005,85.14227791666072
8.26,-0.11811565659550051,85.14227791666072
8.27,-0.12360683688652377,84.34949237345725
8.28,-0.12895060294154642,84.13639739829094
8.29,-0.12681309651953737,83.61630118771555
8.3,-0.12648141448853595,83.61630118771555
8.31,-0.12541266127753142,83.52600670671288
8.32,-0.12817667820254314,83.58560106417464
8.33,-0.1327465195185625,83.46460645963106
8.34,-0.13230427681056062,83.58560106417464
8.35,-0.13731636083458187,87.03485023847675
8.36,-0.14512931534261497,87.49354620197033
8.37,-0.14144395944259935,87.52244043589118
8.38,-0.13595277915157608,87.12695060909948
8.39,-0.1353631222075736,86.33235917627596
8.4,-0.1410017167345975,85.69126836115697
8.41,-0.14601380075861872,85.5395736330725
8.42,-0.14892523191963106,84.04429702766822
8.43,-0.1435814658646084,83.15941111384203
8.44,-0.13565795067957484,82.42621992810031
8.45,-0.13764804286558327,81.02304369331877
8.46,-0.14236529841760326,80.16885790303348
8.47,-0.1445028048396123,79.5277670879145
8.48,-0.14221788418160264,78.8252760257137
8.49,-0.13978554928759232,78.36838595184018
8.5,-0.13823769980958578,78.00179035896932
8.51,-0.1387167960765878,77.66589488963938
8.52,-0.14144395944259935,76.842409222895
8.53,-0.14052262046759545,76.26271865485784
8.54,-0.13764804286558327,76.41441338294233
8.55,-0.14313922315660654,75.59092771619795
8.56,-0.146787725497622,75.52952746911613
8.57,-0.14601380075861872,75.40853286457255
8.58,-0.14785647870862653,75.255032246868
8.59,-0.12239066943951862,74.64464155528994
8.6,-0.09873068456141837,74.3701463330418
8.61,-0.10772295295745647,74.30874608595998
8.62,-0.12773443549454128,74.00355074017095
8.63,-0.14207046994560202,73.60806091337925
8.64,-0.14465021907561296,73.6369551473001
8.65,-0.1402277919955942,73.18006507342658
8.66,-0.13823769980958578,73.21076519696749
8.67,-0.14085430249859687,73.14936494988567
8.68,-0.17409621271673772,72.81346948055571
8.69,-0.19712968709183532,72.41617376414395
8.7,0.21408232423190715,72.05138406089316
8.71,1.271042396356386,71.6540883444814
8.72,1.8171752871797002,71.6847884680223
8.73,0.9518537218560335,71.16649814706696
8.74,0.01297245276805497,70.79990255419611
8.75,-0.11000787361546616,70.7692024306552
8.76,-0.055096070705233466,70.5868075790298
8.77,-0.09003324463738151,70.43330696132524
8.78,-0.11642039288149332,70.0974114919953
8.79,-0.10694902821845319,69.94571676391081
8.8,-0.09795675982241508,69.2125255781691
8.81,-0.09080716937638479,69.1818254546282
8.82,-0.08804315245137308,68.87663010883917
8.83,-0.08527913552636136,68.78452973821643
8.84,-0.0726383647893078,68.38903991142473
8.85,-0.05034196159421332,68.41974003496564
8.86,-0.03677985188215585,68.02244431855388
8.87,-0.027603315691116966,67.93034394793115
8.88,-0.015699616134066525,67.99174419501297
8.89,0.0044224270800187395,67.71724897276484
8.9,0.03202574277113571,67.68654884922393
8.91,0.06058725099625673,67.19895865180949
8.92,0.090622901581384,66.95516355310228
8.93,0.1327465195185625,66.83236305893864
8.94,0.18828483293179785,66.58856796023142
8.95,0.253921021511076,66.09917187319694
8.96,0.3318662987964063,66.16057212027876
8.97,0.4159661204347626,66.06847174965603
8.98,0.49590148990610133,67.59444847860121
8.99,0.5685398546954091,73.42386017213379
9.0,0.6231568291336406,73.54666066629743
9.01,0.6413256337207176,73.4545602956747
9.02,0.5924946680455107,73.51596054275652
9.03,0.4754477646610147,82.88491589159389
9.04,0.31937294229535335,92.95455641301201
9.05,0.16860503242571445,101.71312107027133
9.06,0.04942062261920942,106.96284219576674
9.07,-0.032652253274138364,108.76331414696004
9.08,-0.07720820610532717,108.82471439404186
9.09,-0.10392703638044039,108.76331414696004
9.1,-0.12099023419751269,108.39671855408919
9.11,-0.12345942265052315,108.30642407308652
9.12,-0.12345942265052315,108.00122872729749
9.13,-0.12681309651953737,107.11634281347129
9.14,-0.12773443549454128,102.1718170337649
9.15,-0.12312774061952174,98.57087313137829
9.16,-0.12113764843351331,94.90852898190987
9.17,-0.118705313539503,91.6741806723941
9.18,-0.11443030069548489,90.08680369636711
9.19,-0.11155572309347271,88.74322181904733
9.2,-0.11369322951548176,88.01183652292568
9.21,-0.11704690338449598,87.88903602876205
9.22,-0.1204005772535102,87.91973615230296
9.23,-0.1219115731725166,87.49354620197033
9.24,-0.12574434330853282,87.61454080651392
9.25,-0.1278818497305419,86.82175526331045
9.26,-0.13108810936355547,86.42445954689869
9.27,-0.13565795067957484,85.50887350953158
9.28,-0.13716894659858125,85.63167400369521
9.29,-0.13716894659858125,85.6009738801543
9.3,-0.1379428713375845,85.57027375661339
9.31,-0.13901162454858906,84.31879224991634
9.32,-0.1400803777595936,83.19011123738292
9.33,-0.1400803777595936,82.33592544709764
9.34,-0.14207046994560202,81.54133401427411
9.35,-0.14557155805061686,81.47993376719229
9.36,-0.14420797636761107,81.5106338907332
9.37,-0.13901162454858906,81.35893916264871
9.38,-0.1377954571015839,81.47993376719229
9.39,-0.14144395944259935,81.42033940973053
9.4,-0.14387629433660967,85.5395736330725
9.41,-0.14085430249859687,86.69895476914681
9.42,-0.13764804286558327,87.09625048555857
9.43,-0.13716894659858125,87.49354620197033
9.44,-0.13901162454858906,87.52244043589118
9.45,-0.1417387879146006,87.09625048555857
9.46,-0.1383851140455864,87.06555036201766
9.47,-0.13580536491557546,86.39375942335778
9.48,-0.13624760762357735,84.13639739829094
9.49,-0.1374637750705825,82.73141527388935
9.5,-0.13657928965457874,81.42033940973053
9.51,-0.13853252828158702,80.68714822398883
9.52,-0.13901162454858906,79.86366255724444
9.53,-0.14067003470359607,79.09977124796183
9.54,-0.14085430249859687,78.8252760257137
9.55,-0.11597815017349145,78.36838595184018
9.56,-0.09581925340040602,77.87898986480569
9.57,-0.10573286077144803,77.08620432160221
9.58,-0.11933182404250565,76.81170909935409
9.59,-0.1304615988605528,76.29341877839875
9.6,-0.13304134799056375,75.9575233090688
9.61,-0.1312355235995561,75.9575233090688
9.62,-0.12924543141354766,75.68302808682067
9.63,-0.1243439080665269,74.67534167883083
9.64,-0.14236529841760326,74.70604180237174
9.65,-0.19775619759483798,73.88255613562737
9.66,0.04149710743417584,73.94215049308913
9.67,0.9898497411851944,73.51596054275652
9.68,1.897110656651039,73.21076519696749
9.69,1.3960128149259154,73.21076519696749
9.7,0.28321960091620013,73.21076519696749
9.71,-0.06880559465329156,73.18006507342658
9.72,-0.027603315691116966,72.81346948055571
9.73,-0.04392944232818615,72.35657940668219
9.74,-0.08085670844634263,72.53897425830759
9.75,-0.08240455792434918,72.02068393735225
9.76,-0.07643428136632388,72.14167854189583
9.77,-0.07094310107530062,71.98998381381134
9.78,-0.06453058180927344,71.6847884680223
9.79,-0.058302330338247055,71.6540883444814
9.8,-0.04897837991120754,71.22609250452872
9.81,-0.03784860509316038,70.79990255419611
9.82,-0.026387148244111813,70.89200292481883
9.83,-0.0140412059790595,70.46400708486615
9.84,0.0015109959190064027,70.52540733194797
9.85,0.019237557798081516,70.03601124491348
9.86,0.03876994406816429,69.67122154166269
9.87,0.06102949370425861,69.24322570171002
9.88,0.09276040800339307,69.24322570171002
9.89,0.13108810936355547,69.15112533108729
9.9,0.1786660540327571,68.78452973821643
9.91,0.23973240129601586,68.81522986175735
9.92,0.3126655945573249,68.4793343924274
9.93,0.39610205213367844,68.26623941726109
9.94,0.47865402429402826,68.81522986175735
9.95,0.5497813931643296,71.16649814706696
9.96,0.6080468699435766,71.31819287515145
9.97,0.6327756080326813,71.22609250452872
9.98,0.5963274381815269,77.84828974126478
9.99,0.48919414216807294,87.15765073264039
