time_s,ECG,NIBP
0.0,-0.13671552284450653,-1.0985153326471593
0.01,-0.13794683638552327,-87.801624051436
0.02,-0.13322018117968473,0.059701920252563004
0.03,-0.12984399888980006,-87.76978302730129
0.04,-0.13139307076398243,-0.7323435550981062
0.05,-0.138383754093626,-88.47028555826469
0.06,-0.14084638117565954,0.6686615068287056
0.07,-0.13917814992654004,-88.71705349530862
0.08,-0.14481836034022974,0.24278780902708955
0.09,-0.14497723950681254,-88.95984130433571
0.1,-0.14128329888376226,0.7920454753506692
0.11,-0.13977394680122557,-89.29417205775006
0.12,-0.13762907805235766,0.3661717775490531
0.13,-0.12678557493308099,-89.93497266846092
0.14,-0.12007293014495735,0.8835884197379325
0.15,-0.10299341973730546,-88.86829835994845
0.16,-0.01692063124106908,1.3094621175395487
0.17,0.056759582261708255,-88.71705349530862
0.18,0.02228280311323886,0.8238864994853694
0.19,-0.036145010397588884,-89.17476821724495
0.2,-0.07340217496125742,0.7602044512159689
0.21,-0.12543510201712713,-90.02651561284817
0.22,-0.1559399020010263,0.3343307534143528
0.23,-0.14755902596378317,-89.60064191504655
0.24,-0.13564308847007256,1.2816012214216859
0.25,-0.14283237075794464,-90.54791238305388
0.26,-0.2441575592461306,1.6477729989707388
0.27,-0.386354413337744,-90.33298547014466
0.28,-0.18203580511225256,2.013944776519792
0.29,0.7153137277474485,-89.90711177234304
0.3,1.324933089925684,2.3482755299341447
0.31,0.6021123215571976,-90.2096015016227
0.32,-0.19514333635533426,1.3094621175395487
0.33,-0.3087022206703965,-89.78372780382108
0.34,-0.2768072279788977,2.073646696772355
0.35,-0.1942297811474831,-90.11805855723543
0.36,-0.15427167075190681,1.341303141674249
0.37,-0.15653569887571184,-90.39268739039723
0.38,-0.1498230540875882,2.4995203945739712
0.39,-0.1305986749310684,-89.87527074820835
0.4,-0.11137429577454859,1.341303141674249
0.41,-0.10879250931757796,-90.05835663698288
0.42,-0.10299341973730546,1.767176839475865
0.43,-0.08805877807852149,-89.81556882795579
0.44,-0.07598396141822805,1.2179191731522854
0.45,-0.06255867184198076,-90.18174060550484
0.46,-0.04746515101661397,2.4079774501867077
0.47,-0.03828987914645679,-90.60761430330645
0.48,-0.026850579152494596,3.080619085032251
0.49,-0.005322452080524077,-90.75885916794628
0.5,0.020455692697536564,2.4079774501867077
0.51,0.05354227913840639,-90.60761430330645
0.52,0.10482053015300775,3.9642075047701835
0.53,0.15502634679317517,-91.52304374717909
0.54,0.19121107698240974,3.140321005284814
0.55,0.22322522904884562,-91.9807584691154
0.56,0.23788183216610967,3.2955459979414776
0.57,0.19792372177053338,-89.84342972407364
0.58,0.11872245722900347,2.654745387230635
0.59,0.048378706224465114,-91.49120272304438
0.6,-0.0032173031233018673,4.14729339354471
0.61,-0.04027586872874189,-91.43150080279182
0.62,-0.06605401350680254,3.231863949672077
0.63,-0.08897233328637263,-91.9807584691154
0.64,-0.10557520619427609,3.140321005284814
0.65,-0.11137429577454859,-91.76583155620618
0.66,-0.11093737806644587,3.446790862581304
0.67,-0.11705422597988399,-92.34693024666446
0.68,-0.1229724749350936,3.936346608652321
0.69,-0.11598179160545004,-92.43847319105171
0.7,-0.10787895410972681,3.4149498384466037
0.71,-0.10041163328033482,-92.7449430483482
0.72,-0.08897233328637263,3.9642075047701835
0.73,-0.08253772703976889,-93.41360455517692
0.74,-0.07920126454152993,3.9045055845176204
0.75,-0.06974795412985282,-92.49817511130428
0.76,-0.06696756871465369,3.8448036642650574
0.77,-0.07721527495924482,-92.77280394446608
0.78,-0.08134613329039783,4.879636948642816
0.79,-0.08162417183191775,-92.34693024666446
0.8,-0.08897233328637263,3.5383338069685673
0.81,-0.08468259578863681,-92.56185715957368
0.82,-0.08011481974938107,3.172162029419514
0.83,-0.08623166766281919,-93.04743277762786
0.84,-0.08285548537293451,4.4219222267065
0.85,-0.07936014370811273,-92.83648599273548
0.86,-0.08543727182990514,4.513465171093763
0.87,-0.08849569578662421,-93.53698852369888
0.88,-0.08361016141420285,4.394061330588637
0.89,-0.07463348850227418,-93.32206161078965
0.9,-0.060413803093112846,4.394061330588637
0.91,-0.0062757270800209266,-92.53001613543898
0.92,0.07614284058481086,5.85874844078485
0.93,0.07904238537494711,-92.62155907982624
0.94,0.01997905519778814,5.186106805939306
0.95,-0.023951034362358348,-94.14594811027501
0.96,-0.07368021350277733,5.432874742983233
0.97,-0.11415468118974774,-93.56882954783357
0.98,-0.11200981244087983,5.890589464919549
0.99,-0.09902144057273525,-94.54396091195878
1.0,-0.11490935723101608,5.432874742983233
1.01,-0.16602872907903463,-94.57580193609347
1.02,-0.3047302415058262,5.767205496397586
1.03,-0.3002816248415076,-95.06535768216449
1.04,0.3213331144137297,5.34133179859597
1.05,1.1882175670811774,-94.7270468007333
1.06,0.8927817568204454,6.073675353694076
1.07,-0.030822558317064805,-94.08624619002245
1.08,-0.2955549696356691,5.1264048856867435
1.09,-0.27283524881432747,-94.48425899170621
1.1,-0.19164799469051247,5.460735639101096
1.11,-0.11228785098239974,-95.4593903558314
1.12,-0.11244673014898256,5.552278583488359
1.13,-0.11077849889986306,-95.30814549119158
1.14,-0.09155411974334327,6.284622138586466
1.15,-0.08285548537293451,-95.00167563389509
1.16,-0.08468259578863681,6.559250971748256
1.17,-0.07781107183393035,-94.94197371364253
1.18,-0.057514258302976594,6.531390075630393
1.19,-0.0404347478953247,-95.27630446705687
1.2,-0.033404344774035435,6.467708027360992
1.21,-0.029750123942630848,-95.09321857828235
1.22,-0.019065499989936993,6.989104797566709
1.23,-0.0036542208314045903,-95.55093330021867
1.24,0.012829492701561767,7.355276575115762
1.25,0.034317899981886585,-95.7658602131279
1.26,0.06486241975743147,6.284622138586466
1.27,0.10740231660997838,-94.91013268950783
1.28,0.154112791585324,7.506521439755589
1.29,0.19363398427279757,-95.98078712603713
1.3,0.224774300923028,7.016965693684572
1.31,0.2383584696658581,-96.28327685531677
1.32,0.20829058739006165,7.721448352664815
1.33,0.13870151242679163,-96.25541595919891
1.34,0.06470354059084867,7.474680415620888
1.35,0.004289737497735823,-95.7658602131279
1.36,-0.036145010397588884,7.355276575115762
1.37,-0.060135764551592925,-96.95591849016232
1.38,-0.08194193016508336,8.023938081944468
1.39,-0.1019209853628715,-97.01562041041488
1.4,-0.10938830619226349,8.362248963375658
1.41,-0.11351916452341651,-96.37481979970404
1.42,-0.11931825410368901,7.474680415620888
1.43,-0.11490935723101608,-97.04746143454958
1.44,-0.10223874369603712,7.872693217304642
1.45,-0.09552609890791347,-97.68826204526043
1.46,-0.09306347182587994,8.023938081944468
1.47,-0.0865097062043391,-96.37481979970404
1.48,-0.08011481974938107,7.474680415620888
1.49,-0.08011481974938107,-97.87134793403496
1.5,-0.08134613329039783,8.545334852150186
1.51,-0.07979706141621545,-96.92407746602761
1.52,-0.08178305099850056,8.819963685311974
1.53,-0.08515923328838523,-97.99473190255692
1.54,-0.08817793745345859,8.847824581429837
1.55,-0.09199103745144599,-97.44547423623334
1.56,-0.09369898849221117,9.030910470204363
1.57,-0.09278543328436002,-97.01562041041488
1.58,-0.09278543328436002,8.911506629699238
1.59,-0.09246767495119441,-97.96289087842221
1.6,-0.09397702703373109,9.76325402530247
1.61,-0.09552609890791347,-98.14597676719674
1.62,-0.09628077494918182,8.788122661177274
1.63,-0.1039069749451566,-98.42060560035853
1.64,-0.09933919890590087,8.847824581429837
1.65,-0.08162417183191775,-97.44547423623334
1.66,-0.0749115270437941,8.847824581429837
1.67,-0.028399651026676978,-98.02259279867478
1.68,0.05735537913639378,9.397082247753417
1.69,0.06653065100655096,-98.66339340938562
1.7,0.014338844784098446,8.545334852150186
1.71,-0.025500106236540726,-97.99473190255692
1.72,-0.0787246270417815,9.643850184797344
1.73,-0.13016175722296566,-98.36090368010596
1.74,-0.1385426332602088,9.030910470204363
1.75,-0.1324655051384164,-98.75493635377289
1.76,-0.1344117749290558,9.854796969689733
1.77,-0.17746802907299683,-97.41363321209863
1.78,-0.3373799102385934,10.252809771373487
1.79,-0.347429017524956,-98.78677737790758
1.8,0.30608071442178014,10.161266826986223
1.81,1.3325592899216587,-98.05443382280947
1.82,1.1305047098199723,10.678683469175102
1.83,0.07018487183795555,-99.33603504423117
1.84,-0.29877227275897095,10.802067437697065
1.85,-0.2781577008948516,-99.18479017959133
1.86,-0.21178592905488342,11.259782159633383
1.87,-0.1597530019990137,-99.33603504423117
1.88,-0.1617389915812988,11.13639819111142
1.89,-0.15288147804430727,-98.57185046499836
1.9,-0.13671552284450653,11.291623183768083
1.91,-0.12908932284853172,-99.55096195714039
1.92,-0.1191593749371062,10.770226413562366
1.93,-0.10986494369201191,-99.85345168642004
1.94,-0.09965695723906648,11.291623183768083
1.95,-0.09064056453549212,-99.61066387739295
1.96,-0.08527839266332234,11.657794961317135
1.97,-0.07582508225164525,-100.43455037687832
1.98,-0.0768975166260792,12.664767349577032
1.99,-0.08253772703976889,-100.12808051958183
2.0,-0.07050263017112117,11.900582770344226
2.01,-0.045916079142431586,-101.25843687636369
2.02,-0.015252399991949593,11.868741746209524
2.03,0.02577814477806064,-99.73404784591492
2.04,0.07598396141822805,12.143370579371314
2.05,0.12086732597787139,-100.52609332126559
2.06,0.1576081332501458,12.57322440518977
2.07,0.18080449157123582,-100.2196234639691
2.08,0.1669422842868858,11.868741746209524
2.09,0.1057340853608589,-100.74102023417481
2.1,0.027009458319077407,12.358297492280542
2.11,-0.03479453748163501,-100.55793434540028
2.12,-0.0787246270417815,12.509542356920369
2.13,-0.1095471853588463,-101.74799262243471
2.14,-0.12603089889181265,12.847853238351558
2.15,-0.13993282596780837,-101.2902779004984
2.16,-0.14890949887973703,12.175211603506016
2.17,-0.1556221436678607,-100.64947728978755
2.18,-0.1651151738711835,12.60108530130763
2.19,-0.16630676762055455,-101.77585351855257
2.2,-0.16233478845598434,12.939396182738822
2.21,-0.1557810228344435,-101.80769454268727
2.22,-0.14481836034022974,12.816012214216858
2.23,-0.13731131971919205,-102.35695220901086
2.24,-0.13107531243081683,13.671739737836928
2.25,-0.1249584645173787,-101.13505290784173
2.26,-0.12178088118572254,13.671739737836928
2.27,-0.12269443639357368,-101.31813879661625
2.28,-0.12726221243282942,13.365269880540438
2.29,-0.1304795155561313,-102.17386632023633
2.3,-0.12603089889181265,13.090641047378648
2.31,-0.12237667806040807,-101.83953556682198
2.32,-0.12618977805839546,13.699600633954791
2.33,-0.13123419159739963,-102.29725028875829
2.34,-0.1325846645133535,14.157315355891107
2.35,-0.13381597805437026,-102.41665412926342
2.36,-0.13504729159538703,13.854825626611454
2.37,-0.13536504992855264,-103.05745473997426
2.38,-0.13671552284450653,14.79811596660195
2.39,-0.1441828436738985,-102.59974001803793
2.4,-0.1463277124227664,13.671739737836928
2.41,-0.1405286228424939,-102.59974001803793
2.42,-0.1327435436799363,14.340401244665633
2.43,-0.12571314055864705,-102.57187912192008
2.44,-0.12329023326825922,14.372242268800333
2.45,-0.08682746453750471,-103.67039445456724
2.46,0.005481331247106885,14.615030077827424
2.47,0.026095903111226258,-103.57885151017997
2.48,-0.04182494060292428,14.921499935123913
2.49,-0.08345128224762004,-103.39576562140545
2.5,-0.11888133639558629,15.07274479976374
2.51,-0.16189787074788162,-103.54701048604528
2.52,-0.1765544738651457,14.889658910989214
2.53,-0.1730194124086782,-104.24751301700869
2.54,-0.1705965051182904,15.62200246608732
2.55,-0.18874844990037623,-104.37089698553065
2.56,-0.32363686232918043,15.164287744151004
2.57,-0.4209900716527962,-104.49428095405261
2.58,0.0016682312491194868,16.44588896557269
2.59,1.1248644994062824,-105.25448540526858
2.6,1.4428611513217733,16.537431909959952
2.61,0.4203942747781107,-105.34602834965584
2.62,-0.2520617977836253,15.777227458743983
2.63,-0.3015129383825244,-105.7122001272049
2.64,-0.24614354882841571,16.079717188023636
2.65,-0.1846175915692232,-105.7122001272049
2.66,-0.1846175915692232,16.60111395822935
2.67,-0.18735825719277666,-105.31816745353798
2.68,-0.17166893949272433,16.143399236293035
2.69,-0.16082543637344768,-104.55398287430518
2.7,-0.15272259887772444,15.805088354861846
2.71,-0.13687440201108933,-104.55398287430518
2.72,-0.11840469889583786,16.26280307679816
2.73,-0.10482053015300775,-105.07139951649405
2.74,-0.10347005723705388,15.10458582389844
2.75,-0.10132518848818597,-104.97985657210678
2.76,-0.08881345411978982,15.62200246608732
2.77,-0.07721527495924482,-104.15597007262141
2.78,-0.06684840933971657,16.2349421806803
2.79,-0.04929226143231626,-104.82861170746696
2.8,-0.020733731239056478,16.81206074312174
2.81,0.02196504478007324,-104.33905596139594
2.82,0.0747526478772113,16.60111395822935
2.83,0.12376687076800764,-104.58582389843987
2.84,0.16968294991043922,17.425000457714724
2.85,0.2059868394746109,-105.52911423843037
2.86,0.1980428811454705,17.210073544805496
2.87,0.13488841242880423,-106.38484176205044
2.88,0.05509135101258877,16.692656902616616
2.89,-0.008539755203825944,-106.65947059521223
2.9,-0.05326424059688647,17.9424170999036
2.91,-0.08575503016307076,-106.14205395302335
2.92,-0.10648876140212724,17.30161648919276
2.93,-0.11625983014696994,-105.89528601597942
2.94,-0.12329023326825922,17.241914568940196
2.95,-0.12634865722497826,-106.01866998450139
2.96,-0.12801688847409776,18.280727981334792
2.97,-0.12940708118169733,-106.81469558786888
2.98,-0.1325846645133535,18.217045933065393
2.99,-0.13290242284651912,-107.14902634128325
3.0,-0.12376687076800764,17.759331211129076
3.01,-0.12162200201913972,-107.33211223005777
3.02,-0.11610095098038714,18.615058734749145
3.03,-0.10513828848617338,-107.63858208735427
3.04,-0.10239762286261993,19.31556126571255
3.05,-0.09918031973931805,-108.82864036438868
3.06,-0.09767096765678138,18.921528592045636
3.07,-0.09520834057474785,-108.82864036438868
3.08,-0.0903228062023265,18.889687567910933
3.09,-0.10454249161148783,-108.46246858683963
3.1,-0.11598179160545004,19.498647154487077
3.11,-0.10621072286060733,-107.88136989638134
3.12,-0.10116630932160316,19.347402289847253
3.13,-0.0997761166140036,-107.84952887224665
3.14,-0.09933919890590087,19.745415091531004
3.15,-0.10299341973730546,-108.88834228464124
3.16,-0.09552609890791347,19.65387214714374
3.17,-0.08897233328637263,-107.75798592785938
3.18,-0.09445366453347952,20.111586869080057
3.19,-0.09552609890791347,-109.34605700657757
3.2,-0.08682746453750471,20.20312981346732
3.21,-0.07630171975139367,-108.67341537173202
3.22,-0.07614284058481086,19.530488178621777
3.23,-0.08591390932965356,-108.70525639586671
3.24,-0.08774101974535586,20.843930424178165
3.25,-0.07538816454354252,-110.41273131509001
3.26,-0.06347222704983191,21.452890010754306
3.27,-0.05477359267942315,-110.90228706116103
3.28,-0.0009135552078511476,21.51259193100687
3.29,0.09004476766080659,-110.84258514090847
3.3,0.09643965411576462,23.009120065337783
3.31,0.03419874060694948,-112.36697417135724
3.32,0.0016682312491194868,23.773304644570587
3.33,-0.03372210310720106,-111.78587548089897
3.34,-0.07447460933569137,24.10763539798494
3.35,-0.08194193016508336,-111.7261735606464
3.36,-0.07082038850428679,24.01609245359768
3.37,-0.06974795412985282,-111.48338575161932
3.38,-0.09322235099246275,23.009120065337783
3.39,-0.2287462800875982,-111.87741842528624
3.4,-0.30516715921392895,23.590218755796062
3.41,0.15518522595975798,-111.9689613696735
3.42,1.1161658650358737,23.25190787436487
3.43,1.1552501400152446,-111.84955752916837
3.44,0.21011769780576392,22.67478931192343
3.45,-0.2267602905053131,-111.69433253651171
3.46,-0.22811076342126696,23.100663009725046
3.47,-0.17929513948869913,-111.14507487018813
3.48,-0.09874340203121534,23.4986758114088
3.49,-0.08162417183191775,-111.87741842528624
3.5,-0.08225968849824898,22.12553164559985
3.51,-0.06851664058883607,-111.45154472748462
3.52,-0.05052357497333303,22.70265020804129
3.53,-0.03936231352089075,-111.2366178145754
3.54,-0.029750123942630848,22.67478931192343
3.55,-0.015093520825366784,-112.18388828258273
3.56,0.0015093520825366785,22.491703423148902
3.57,0.01783418644892023,-111.39184280723205
3.58,0.02808189269351136,23.25190787436487
3.59,0.03495341664821782,-111.60278959212444
3.6,0.04746515101661397,23.068821985590343
3.61,0.06835776142225326,-112.30727225110469
3.62,0.09354010932562837,23.86484758895785
3.63,0.12511734368396152,-112.91623183768083
3.64,0.17027874678512475,24.473807175533995
3.65,0.21988876655060663,-112.764986973041
3.66,0.25849640403022905,23.956390533345115
3.67,0.2894778415138767,-112.94807286181553
3.68,0.3149382279587717,24.441966151399296
3.69,0.3096157758782476,-113.52519142425697
3.7,0.25666929361452673,25.2379917547668
3.71,0.17623671553198006,-113.25056259109517
3.72,0.10084855098843755,25.054905865992275
3.73,0.04194409997786138,-113.7719593613009
3.74,0.0025817864569706345,26.06187825425217
3.75,-0.014338844784098446,-114.07444909058056
3.76,-0.03312630623251552,24.780277032830483
3.77,-0.05250956455561813,-114.68738880517353
3.78,-0.056441823928542634,26.153421198639432
3.79,-0.05981800621842731,-114.32121702762448
3.8,-0.05691846142829106,25.1743097064974
3.81,-0.047902068724716695,-115.38789133613693
3.82,-0.04210297914444419,26.822082705468137
3.83,-0.03312630623251552,-115.96899002659522
3.84,-0.02808189269351136,25.970335309864907
3.85,-0.031577234358333144,-116.08839386710034
3.86,-0.029154327067945317,26.9454666739901
3.87,-0.02152812707197052,-116.06053297098248
3.88,-0.024268792695523962,26.06187825425217
3.89,-0.03205387185808157,-115.81376503393855
3.9,-0.04134830310317585,27.16039358689933
3.91,-0.04913338226573346,-115.69436119343342
3.92,-0.04746515101661397,26.85392372960284
3.93,-0.04563804060091167,-115.32818941588437
3.94,-0.04639271664218001,27.70965125322291
3.95,-0.043175413518878145,-116.2117778356223
3.96,-0.039521192687473554,27.49472434031368
3.97,-0.043493171852043766,-115.53913620077677
3.98,-0.0460749583090144,27.311638451539157
3.99,-0.044247847893312105,-115.99685092271308
4.0,-0.04671047497534563,27.801194197610172
4.01,-0.05552826872069149,-116.243618859757
4.02,-0.06073156142627846,27.737512149340773
4.03,-0.060254923926530035,-116.08839386710034
4.04,-0.05981800621842731,28.07582303077196
4.05,-0.06089044059286127,-115.38789133613693
4.06,-0.06089044059286127,27.64596920495351
4.07,-0.059500247885261696,-116.36302270026214
4.08,-0.05433667497132043,27.554426260566245
4.09,-0.04210297914444419,-116.15207591536975
4.1,-0.01692063124106908,28.07582303077196
4.11,0.05477359267942315,-116.12023489123504
4.12,0.11566403327228442,28.19522687127709
4.13,0.07920126454152993,-116.243618859757
4.14,0.02808189269351136,27.618108308835644
4.15,0.00015887916658280827,-116.85257844633315
4.16,-0.04575719997584878,28.469855704438878
4.17,-0.07995594058279826,-117.1869091997475
4.18,-0.08194193016508336,28.318610839799053
4.19,-0.0730844166280918,-116.76103550194588
4.2,-0.07614284058481086,28.56139864882614
4.21,-0.1635661019970011,-116.91228036658572
4.22,-0.31616954149978843,28.533537752708277
4.23,-0.17699139157324842,-117.89139185872774
4.24,0.6800822725577108,28.684782617348105
4.25,1.443020030488356,-117.15904830362965
4.26,0.8076622433237058,29.90668191851723
4.27,-0.1095471853588463,-118.80682130260038
4.28,-0.2641366144439187,29.265881307806385
4.29,-0.22537009779771353,-118.16602069188953
4.3,-0.15288147804430727,28.899709530257333
4.31,-0.11367804368999931,-117.46153803290929
4.32,-0.11399580202316494,29.751456925860563
4.33,-0.10466165098642495,-118.59189438969115
4.34,-0.09874340203121534,28.899709530257333
4.35,-0.09858452286463253,-118.2575636362768
4.36,-0.08623166766281919,29.815138974129965
4.37,-0.07248861975340627,-118.28542453239466
4.38,-0.06057268225969565,30.424098560706106
4.39,-0.05250956455561813,-118.40880850091662
4.4,-0.052191806222452515,29.7235960297427
4.41,-0.04273849581077542,-119.08145013576217
4.42,-0.02943236560946523,29.691755005608
4.43,-0.01783418644892023,-119.44762191331122
4.44,-0.0023037479154507197,30.121608831426453
4.45,0.01692063124106908,-120.12026354815677
4.46,0.05080161351485294,30.82211136238986
4.47,0.0979490061983013,-119.23269500040199
4.48,0.14771790513036598,30.57932355336277
4.49,0.1921246321902609,-119.41578088917652
4.5,0.2249331800896108,31.797242726515055
4.51,0.23879538737396083,-120.0287206037695
4.52,0.20674151551587924,31.522613893353267
4.53,0.13488841242880423,-119.72225074647301
4.54,0.0672853270478193,31.64599786187523
4.55,0.011598179160545003,-121.21877888080392
4.56,-0.0384487583130396,32.410182441108034
4.57,-0.07002599267137274,-121.40186476957845
4.58,-0.07920126454152993,32.684811274269826
4.59,-0.09278543328436002,-120.88046799937273
4.6,-0.11137429577454859,32.89575805916221
4.61,-0.12205891972724245,-121.76803654712751
4.62,-0.12253555722699087,34.117657360331336
4.63,-0.11780890202115232,-122.0426653802893
4.64,-0.11840469889583786,33.2022279164587
4.65,-0.11292336764873097,-122.07052627640715
4.66,-0.09675741244893023,33.41715482936793
4.67,-0.08774101974535586,-121.49340771396571
4.68,-0.08543727182990514,32.684811274269826
4.69,-0.08055173745748379,-122.01082435615459
4.7,-0.07538816454354252,33.445015725485796
4.71,-0.07431573016910857,-121.82773846738007
4.72,-0.07431573016910857,33.41715482936793
4.73,-0.07844658850026158,-121.31032182519118
4.74,-0.08623166766281919,33.41715482936793
4.75,-0.09322235099246275,-120.91230902350743
4.76,-0.09703545099045015,33.78332660691699
4.77,-0.09552609890791347,-122.07052627640715
4.78,-0.09628077494918182,34.607213106402355
4.79,-0.0942947853668967,-122.4366980539562
4.8,-0.09187187807650889,33.84302852716955
4.81,-0.09079944370207492,-121.7361955229928
4.82,-0.08925037182789254,33.87486955130425
4.83,-0.09461254370006232,-122.4366980539562
4.84,-0.09886256140615245,33.934571471556815
4.85,-0.09461254370006232,-121.91928141176733
4.86,-0.09354010932562837,33.78332660691699
4.87,-0.0999349957805864,-121.42972566569631
4.88,-0.10164294682135158,33.87486955130425
4.89,-0.09719433015703295,-122.07052627640715
4.9,-0.10787895410972681,34.02611441594407
4.91,-0.11046074056669744,-121.95112243590204
4.92,-0.09064056453549212,35.12462974859123
4.93,-0.07399797183594295,-121.88744038763262
4.94,-0.0250234687367923,35.00124578006927
4.95,0.060413803093112846,-123.07749866466705
4.96,0.07463348850227418,35.06492782833867
4.97,0.017993065615503036,-122.68346599100013
4.98,-0.025500106236540726,34.69875605078962
4.99,-0.06792084371415054,-124.29939796583618
5.0,-0.12178088118572254,34.69875605078962
5.01,-0.13929730930147716,-123.10933968880175
5.02,-0.12801688847409776,35.705728439049516
5.03,-0.12436266764269317,-124.08447105292694
5.04,-0.14342816763263017,35.27587461323106
5.05,-0.2929731831786984,-123.87352426803456
5.06,-0.38758572687876075,35.00124578006927
5.07,0.09568497807449627,-124.5143248787454
5.08,1.2284934358099193,35.52264255027499
5.09,1.4347980336176958,-124.39094091022343
5.1,0.37964176854962034,36.37438994587822
5.11,-0.23132806654456883,-125.12328446532155
5.12,-0.25786088736389784,35.79727138343678
5.13,-0.20066438739408685,-124.60586782313267
5.14,-0.14708238846403476,36.040059192463865
5.15,-0.15653569887571184,-125.09144344118684
5.16,-0.16662452595372018,37.41320335827282
5.17,-0.1481548228384687,-125.64070110751042
5.18,-0.12678557493308099,36.74056172342727
5.19,-0.11308224681531379,-126.83075938454485
5.2,-0.09643965411576462,37.32166041388555
5.21,-0.08527839266332234,-126.4964286311305
5.22,-0.0768975166260792,37.83907705607443
5.23,-0.06943019579668722,-125.91532994067221
5.24,-0.06696756871465369,38.694804579694505
5.25,-0.0614862374675468,-126.4964286311305
5.26,-0.05171516872270409,37.35350143802025
5.27,-0.03860763747962241,-126.03871390919417
5.28,-0.0230374791545072,36.64901877904001
5.29,0.013266410409664491,-124.90835755241231
5.3,0.05890445101057616,37.170415549245725
5.31,0.0977901270317185,-125.94717096480692
5.32,0.1479959436718859,37.50474630266008
5.33,0.20308729468447467,-126.13025685358144
5.34,0.24137717383093146,37.26195849363299
5.35,0.23879538737396083,-126.2536408221034
5.36,0.18525310823555444,37.6559911672999
5.37,0.11153317494113141,-126.2217997979687
5.38,0.044247847893312105,37.106733500976326
5.39,-0.011002382285859473,-126.2536408221034
5.4,-0.044247847893312105,37.747534111687166
5.41,-0.059341368718678886,-126.13025685358144
5.42,-0.07844658850026158,38.54355971505468
5.43,-0.09628077494918182,-127.35215615475056
5.44,-0.1039069749451566,39.15251930163082
5.45,-0.10911026765074358,-127.41185807500312
5.46,-0.11427384056468484,39.00127443699099
5.47,-0.11475047806443327,-127.56310293964295
5.48,-0.11169205410771421,38.42017574653271
5.49,-0.10728315723504128,-127.2606132103633
5.5,-0.09918031973931805,38.93759238872159
5.51,-0.08742326141219024,-128.05265868571396
5.52,-0.07765219266734753,38.909731492603726
5.53,-0.072925537461509,-127.74618882841747
5.54,-0.07765219266734753,39.18436032576552
5.55,-0.08027369891596388,-127.13722924184134
5.56,-0.07522928537695972,39.57839299943243
5.57,-0.07232974058682347,-127.96111574132671
5.58,-0.07232974058682347,40.191332714025414
5.59,-0.0747526478772113,-128.41883046326302
5.6,-0.07431573016910857,39.91670388086362
5.61,-0.07399797183594295,-128.57007532790286
5.62,-0.07646059891797648,40.31073655453054
5.63,-0.07066150933770397,-127.86957279693944
5.64,-0.06561709579869981,40.434120523052506
5.65,-0.06895355829693879,-128.9999291537213
5.66,-0.06696756871465369,40.25103463427798
5.67,-0.06438578225768304,-128.7253003205595
5.68,-0.06224091350881514,40.55750449157447
5.69,-0.061049319759444075,-130.46461626391752
5.7,-0.06514045829895139,41.07492113376335
5.71,-0.061962874967295224,-129.36610093127035
5.72,-0.05342311976346928,40.28287565841268
5.73,-0.05477359267942315,-128.90838620933403
5.74,-0.054932471846005956,40.92367626912352
5.75,-0.03828987914645679,-129.11933299422643
5.76,-0.023196358321090006,42.17343646641051
5.77,-0.005044413539004163,-129.64072976443214
5.78,0.06668953017313377,41.4729339354471
5.79,0.14267349159136183,-129.9432194937118
5.8,0.1228135957685108,41.65601982422163
5.81,0.06696756871465369,-129.33425990713565
5.82,0.02808189269351136,42.17343646641051
5.83,-0.02363327602919273,-130.03476243809905
5.84,-0.04821982705788231,41.4729339354471
5.85,-0.038011840604936876,-130.18998743075574
5.86,-0.038925395812788026,41.95850955350128
5.87,-0.04210297914444419,-129.88351757345924
5.88,-0.12178088118572254,41.4729339354471
5.89,-0.2589333217383318,-130.2496893510083
5.9,-0.06883439892200167,42.11373454615794
5.91,0.7707228370932029,-130.6755630488099
5.92,1.2671010732895416,40.89183524498882
5.93,0.5418573976306675,-130.6755630488099
5.94,-0.16007076033217932,41.34954996692514
5.95,-0.23514116654255623,-131.2248207151335
5.96,-0.18922508740012464,42.479906323707
5.97,-0.08392791974736846,-130.49247716003538
5.98,-0.03721744477202284,43.029163990030575
5.99,-0.04027586872874189,-131.80591940559177
6.0,-0.02534122706995792,43.701805624876116
6.01,-0.01402108645093283,-131.19695981901563
6.02,-0.011280420827379387,41.62417880008692
6.03,-0.004885534372421355,-131.7462174853392
6.04,0.012035096868647727,42.63115118834682
6.05,0.020733731239056478,-131.62283351681722
6.06,0.02824077186009417,42.90578002150861
6.07,0.03999783018722198,-131.7143764612045
6.08,0.049451140598899074,42.81423707712135
6.09,0.06363110621641471,-131.68651556508664
6.1,0.07463348850227418,43.061005014165275
6.11,0.09751208849019857,-131.92930337411372
6.12,0.1344117749290558,43.94459343390321
6.13,0.17516428115754612,-130.76710599319716
6.14,0.22338410821542842,42.479906323707
6.15,0.2690221488163401,-130.83078804146658
6.16,0.3155340248334572,43.42717679171433
6.17,0.3526323102305429,-132.0526873426357
6.18,0.35461829981282805,43.45503768783219
6.19,0.3094568967116648,-132.60194500895926
6.2,0.23283741862710552,43.180408854670404
6.21,0.15883944679116258,-132.7213488494644
6.22,0.09675741244893023,43.701805624876116
6.23,0.05020581664016741,-131.83776042972647
6.24,0.024546831237043876,44.03613637829047
6.25,0.006871523954706457,-132.4785610404373
6.26,-0.008857513536991561,44.67693698900131
6.27,-0.022123923946656052,-132.51040206457202
6.28,-0.02808189269351136,44.095838298543036
6.29,-0.027446376027180128,-131.7143764612045
6.3,-0.028399651026676978,44.03613637829047
6.31,-0.02867768956819689,-132.7531898735991
6.32,-0.02287859998792439,44.49385110022679
6.33,-0.01632483436638355,-132.99597768262618
6.34,-0.010684623952693855,45.624207457008644
6.35,-0.0018271104157022951,-133.39399048430994
6.36,0.0028995447901362507,44.55355302047935
6.37,0.0021448687488679116,-133.70046034160643
6.38,-0.003376182289884676,44.800320957523276
6.39,-0.007189282287872074,-133.60891739721916
6.4,-0.010207986452945432,44.73663890925388
6.41,-0.013266410409664491,-133.70046034160643
6.42,-0.010525744786111048,44.800320957523276
6.43,-0.0034953416648217817,-134.67559170573162
6.44,0.00031775833316561653,45.409280544099424
6.45,-0.009294431245094284,-133.97508917476821
6.46,-0.01267061353497896,45.624207457008644
6.47,-0.005322452080524077,-134.4606647928224
6.48,-0.017993065615503036,45.83515424190104
6.49,-0.02824077186009417,-134.4925058169571
6.5,-0.020733731239056478,45.68390937726121
6.51,-0.021806165613490434,-134.36912184843513
6.52,-0.023951034362358348,45.46898246435198
6.53,-0.007626199995974797,-134.82683657037146
6.54,0.012035096868647727,45.46898246435198
6.55,0.02363327602919273,-134.85867759450616
6.56,0.08317324370610013,46.356551012106756
6.57,0.15852168845799694,-134.67559170573162
6.58,0.1405286228424939,46.081922178944964
6.59,0.08376904058078566,-134.12633403940805
6.6,0.04913338226573346,46.384411908224614
6.61,0.001231313541016764,-133.9432481506335
6.62,-0.0384487583130396,47.33168237623195
6.63,-0.03570809268948616,-134.18603595966061
6.64,-0.023196358321090006,45.83515424190104
6.65,-0.029909003109213655,-134.30941992818256
6.66,-0.09489058224158224,45.898836290170436
6.67,-0.25098936340919137,-134.43280389670454
6.68,-0.18342599781985214,46.384411908224614
6.69,0.5783201663614221,-134.58404876134435
6.7,1.4384522544491003,46.9655105986829
6.71,0.9629666286584009,-135.4676371810823
6.72,-0.0038130999979873984,46.59933882113384
6.73,-0.2058279603080281,-135.1930083479205
6.74,-0.1617389915812988,46.90580867843033
6.75,-0.10100743015502035,-135.6507230698568
6.76,-0.06804000308908764,46.9336695745482
6.77,-0.06883439892200167,-134.85867759450616
6.78,-0.055687147887274295,47.08889456720486
6.79,-0.043334292685460955,-136.44674867322433
6.8,-0.0384487583130396,46.59933882113384
6.81,-0.03388098227378386,-135.10146540353324
6.82,-0.02271972082134158,48.09586695546476
6.83,-0.006712644788123649,-135.86564998276606
6.84,0.008857513536991561,47.54660928914117
6.85,0.015093520825366784,-135.16514745180265
6.86,0.017397268740817505,47.972482986942794
6.87,0.026413661444391875,-136.32336470470236
6.88,0.03479453748163501,47.940641962808094
6.89,0.05036469580675022,-135.9571929271533
6.9,0.08333212287268293,47.63815223352844
6.91,0.11749114368798672,-136.2636627844498
6.92,0.15840252908305985,48.52174065326637
6.93,0.20447748739207425,-136.62983456199885
6.94,0.24507111445398175,48.30681374035714
6.95,0.28534698318272367,-137.2069531244403
6.96,0.30608071442178014,48.430197708879106
6.97,0.27299412798091033,-136.08057689567528
6.98,0.19470641864723154,47.42322532061921
6.99,0.11610095098038714,-136.9960063395479
7.0,0.055687147887274295,47.91278106669023
7.01,0.012988371868144576,-137.8198928390333
7.02,-0.020296813530953757,48.97945537520269
7.03,-0.0404347478953247,-136.74923840250398
7.04,-0.05052357497333303,48.613283597653634
7.05,-0.06255867184198076,-137.6646678463766
7.06,-0.0732432957946746,48.613283597653634
7.07,-0.08102837495723221,-137.36217811709696
7.08,-0.084523716622054,48.79636948642816
7.09,-0.08055173745748379,-136.72137750638612
7.1,-0.072925537461509,49.16254126397722
7.11,-0.07082038850428679,-137.2069531244403
7.12,-0.0747526478772113,49.31378612861704
7.13,-0.07646059891797648,-136.41490764908963
7.14,-0.072925537461509,48.79636948642816
7.15,-0.06696756871465369,-137.72834989464602
7.16,-0.06502129892401429,50.4123014612642
7.17,-0.06394886454958033,-137.9711377036731
7.18,-0.0614862374675468,49.86304379494062
7.19,-0.06561709579869981,-137.91143578342053
7.2,-0.06696756871465369,49.743639954435494
7.21,-0.06287643017514637,-137.78805181489858
7.22,-0.06653065100655096,49.377468176886445
7.23,-0.07340217496125742,-139.28457994922948
7.24,-0.07383909266936015,49.25408420836448
7.25,-0.07812883016709596,-137.91143578342053
7.26,-0.07979706141621545,49.65209701004823
7.27,-0.07844658850026158,-138.5203953699967
7.28,-0.07979706141621545,48.97945537520269
7.29,-0.07920126454152993,-137.72834989464602
7.3,-0.08543727182990514,50.59538735003873
7.31,-0.08774101974535586,-138.12238256831293
7.32,-0.08833681662004139,50.352599541011635
7.33,-0.08515923328838523,-139.03781201218555
7.34,-0.06943019579668722,50.26105659662437
7.35,-0.05552826872069149,-138.7353222829059
7.36,0.005799089580272501,51.176486040497004
7.37,0.07721527495924482,-138.48855434586198
7.38,0.056600703095125444,50.778473238813255
7.39,0.004289737497735823,-139.43582481386932
7.4,-0.0250234687367923,50.53568542978616
7.41,-0.07431573016910857,-139.46766583800402
7.42,-0.1231313541016764,50.384440565146335
7.43,-0.12344911243484202,-139.46766583800402
7.44,-0.11169205410771421,51.23618796074957
7.45,-0.1171733853548211,-139.37612289361675
7.46,-0.16297030512231558,51.482955897793495
7.47,-0.32729108316058503,-139.86169851167094
7.48,-0.3114428862939499,51.78544562707315
7.49,0.4121325581158046,-139.5273677582566
7.5,1.4350760721592157,52.03221356411708
7.51,1.1415070921058317,-139.43582481386932
7.52,0.06696756871465369,52.03221356411708
7.53,-0.2741857217302814,-140.50249912238178
7.54,-0.2464215873699356,51.81728665120785
7.55,-0.17897738115553352,-139.80199659141837
7.56,-0.14509639888174966,51.08494309610975
7.57,-0.15653569887571184,-140.0169235043276
7.58,-0.15153100512835338,51.908829595595115
7.59,-0.14283237075794464,-139.9532414560582
7.6,-0.13731131971919205,52.97550390410757
7.61,-0.12587201972522985,-140.20000939310214
7.62,-0.11125513639961149,51.75758473095529
7.63,-0.09902144057273525,-140.6855850111563
7.64,-0.08714522287067034,51.02524117585718
7.65,-0.07963818224963265,-140.77712795554356
7.66,-0.07173394371213793,53.007344928242276
7.67,-0.05783201663614221,-140.7492670594257
7.68,-0.05461471351284034,52.42624623778399
7.69,-0.052350685389035326,-140.53434014651648
7.7,-0.0366216478973373,52.732716095080484
7.71,-0.004885534372421355,-141.26668370161457
7.72,0.04547916143432887,53.341675681656625
7.73,0.09703545099045015,-141.2348426774799
7.74,0.14299124992452744,53.25013273726936
7.75,0.18735825719277666,-141.14329973309262
7.76,0.21559902905287082,52.243160349009464
7.77,0.20292841551789187,-140.6855850111563
7.78,0.14311040929946456,52.85610006360245
7.79,0.0652993374655342,-141.54131253477638
7.8,-0.004289737497735823,52.97550390410757
7.81,-0.05461471351284034,-140.80896897967827
7.82,-0.08682746453750471,53.52476157043115
7.83,-0.11200981244087983,-141.39006767013655
7.84,-0.1228135957685108,53.61630451481842
7.85,-0.12420378847611037,-141.7562394476856
7.86,-0.1324655051384164,53.863072451862344
7.87,-0.1403697436759111,-141.206981781362
7.88,-0.14267349159136183,53.13072889676424
7.89,-0.13977394680122557,-142.4249009545143
7.9,-0.13810571555210607,53.648145538953116
7.91,-0.13993282596780837,-141.90748431232544
7.92,-0.13731131971919205,55.08497175303147
7.93,-0.12634865722497826,-141.96718623257797
7.94,-0.12039068847812297,53.95461539624961
7.95,-0.12269443639357368,-142.58012594717096
7.96,-0.12007293014495735,53.982476292367465
7.97,-0.11320140619025089,-141.35822664600184
7.98,-0.1153462749391188,53.863072451862344
7.99,-0.1231313541016764,-142.69952978767608
8.0,-0.11947713327027182,53.831231427727644
8.01,-0.11824581972925505,-142.85475478033277
8.02,-0.1305986749310684,54.65511792721301
8.03,-0.13107531243081683,-143.4955553910436
8.04,-0.12054956764470577,54.472032038438485
8.05,-0.11566403327228442,-144.04481305736718
8.06,-0.11228785098239974,54.62327690307831
8.07,-0.11153317494113141,-142.33335801012703
8.08,-0.11137429577454859,54.90188586425694
8.09,-0.10911026765074358,-142.94629772472
8.1,-0.11109625723302868,55.17651469741873
8.11,-0.11475047806443327,-143.00599964497258
8.12,-0.10787895410972681,54.80636279185284
8.13,-0.0923087957846116,-143.28062847813436
8.14,-0.08162417183191775,55.112832649149325
8.15,-0.043334292685460955,-143.37217142252163
8.16,0.04484364476799763,54.16556218114199
8.17,0.0768975166260792,-144.01297203323247
8.18,0.02061457186411937,54.961587784509504
8.19,-0.023792155195775537,-143.7701842242054
8.2,-0.05842781351082774,54.961587784509504
8.21,-0.10466165098642495,-143.67864127981812
8.22,-0.12146312285255692,55.72577236374231
8.23,-0.11169205410771421,-143.64680025568342
8.24,-0.11518739577253599,56.275030030065885
8.25,-0.13107531243081683,-144.5025277793035
8.26,-0.24519027382891886,55.72577236374231
8.27,-0.3634758133498196,-145.2667123585363
8.28,-0.028399651026676978,55.908858252516836
8.29,1.0385136723685262,-144.9284014771051
8.3,1.4877445158814167,55.23621661767129
8.31,0.5575467153307199,-145.08362646976178
8.32,-0.1763955946985629,56.18348708567862
8.33,-0.25023468736792304,-144.8089976366
8.34,-0.1942297811474831,57.12677742566912
8.35,-0.1265075363915611,-144.44282585905094
8.36,-0.12162200201913972,56.94369153689459
8.37,-0.12452154680927598,-145.01994442149237
8.38,-0.10895138848416076,56.51781783909298
8.39,-0.09751208849019857,-144.9920835253745
8.4,-0.09568497807449627,57.09891652955126
8.41,-0.08909149266130974,-144.86869955685256
8.42,-0.07173394371213793,56.394433870571014
8.43,-0.05433667497132043,-144.2278989461417
8.44,-0.04194409997786138,57.19045947393852
8.45,-0.02899544790136251,-144.6537726439433
8.46,-0.013584168742830107,56.45811591884041
8.47,-0.0036542208314045903,-143.98511113711461
8.48,0.0062757270800209266,56.79244667225477
8.49,0.02228280311323886,-145.75228797659048
8.5,0.04655159580876282,56.36657297445315
8.51,0.09306347182587994,-144.86869955685256
8.52,0.1556221436678607,57.492949203218174
8.53,0.21452659467843685,-145.32641427878886
8.54,0.2613959488203653,57.309863314443646
8.55,0.29738208005137134,-145.08362646976178
8.56,0.3019895758822728,57.46508830710031
8.57,0.2464215873699356,-144.53436880343818
8.58,0.16678340512030299,56.36657297445315
8.59,0.09918031973931805,-145.72442708047262
8.6,0.03904455518772513,57.19045947393852
8.61,-0.0096121895782599,-146.05875783388697
8.62,-0.030226761442379273,57.55663125148757
8.63,-0.03296742706593272,-145.44979824731084
8.64,-0.04456560622647772,58.40837864709081
8.65,-0.05922220934374178,-145.72442708047262
8.66,-0.059500247885261696,57.7397171402621
8.67,-0.059500247885261696,-146.79110138898508
8.68,-0.06378998538299752,58.53176261561277
8.69,-0.056441823928542634,-146.4846315316886
8.7,-0.04210297914444419,58.440219671225506
8.71,-0.030981437483647612,-146.9423462536249
8.72,-0.029750123942630848,58.472060695360206
8.73,-0.0288365687347797,-146.75926036485038
8.74,-0.02136924790538771,58.28897480658568
8.75,-0.017715027073983123,-147.24881611092138
8.76,-0.011439299993962196,59.4153510353507
8.77,-0.0036542208314045903,-146.8229424131198
8.78,-0.004726655205838546,58.774550424639855
8.79,-0.010525744786111048,-147.5234449440832
8.8,-0.0073084416628091805,58.623305560000034
8.81,-0.0036542208314045903,-147.09757124628157
8.82,-0.007030403121289266,59.08102028193635
8.83,-0.009016392703574369,-147.18911419066882
8.84,-0.011757058327127812,58.22529275831628
8.85,-0.010366865619528239,-147.34035905530865
8.86,-0.006553765621540841,58.655146584134734
8.87,-0.014179965617515639,-147.30851803117395
8.88,-0.02669169998591179,58.7148485043873
8.89,-0.022600561446404478,-147.64682891260514
8.9,-0.013901927075995723,58.591464535865335
8.91,-0.010366865619528239,-148.62196027673033
8.92,-0.0016682312491194868,59.904906781421715
8.93,0.005481331247106885,-147.18911419066882
8.94,0.011439299993962196,59.232265146576175
8.95,0.043334292685460955,-147.58314686433576
8.96,0.12190004056065964,58.6830074802526
8.97,0.1690871530357537,-147.61498788847044
8.98,0.13214774680525077,59.59843692412523
8.99,0.08972700932764097,-147.58314686433576
9.0,0.047902068724716695,59.264106170710875
9.01,-0.0030584239567190592,-148.25578849918128
9.02,-0.017397268740817505,58.98947733754908
9.03,-0.011439299993962196,-147.43190199969592
9.04,-0.00595796874685531,59.81336383703446
9.05,-0.012829492701561767,-147.4916039199485
9.06,-0.12360799160142483,59.753661916781894
9.07,-0.23283741862710552,-148.43887438795582
9.08,0.07002599267137274,59.570576028007366
9.09,0.9565717422034429,-148.7453442452523
9.1,1.2290892326846048,61.09496505845614
9.11,0.38742684771217795,-149.04783397453195
9.12,-0.1652343332461206,59.753661916781894
9.13,-0.18616666344340557,-148.83688718963958
9.14,-0.14207769471667628,60.362621503358035
9.15,-0.04929226143231626,-149.96326341840458
9.16,-0.016642592699549166,60.94372019381631
9.17,-0.017556147907400312,-149.0199730784141
9.18,-0.006553765621540841,61.88701053380681
9.19,0.005481331247106885,-149.2309198633065
9.2,0.013425289576247298,60.76063430504179
9.21,0.02136924790538771,-149.07967499866666
9.22,0.03570809268948616,60.971581089934176
9.23,0.04532028226774606,-149.17121794305393
9.24,0.05445583434625753,61.76760669330169
9.25,0.06792084371415054,-149.2309198633065
9.26,0.07646059891797648,60.66909136065453
9.27,0.08698634370408753,-149.35430383182845
9.28,0.11200981244087983,61.795467589419545
9.29,0.14112441971717946,-149.9951044425393
9.3,0.17151006032614152,61.12680608259084
9.31,0.2153209905113509,-150.51252108472818
9.32,0.2676319561087405,61.27805094723067
9.33,0.31752001441574235,-150.11848841106126
9.34,0.3596627133518322,61.88701053380681
9.35,0.38742684771217795,-150.9105338864119
9.36,0.381151120632157,62.133778470850736
9.37,0.32149199358031255,-151.0339178549339
9.38,0.23482340820939063,61.186508002843404
9.39,0.16082543637344768,-149.62893266499023
9.4,0.09886256140615245,61.58452080452716
9.41,0.052032927055869704,-150.36127622008834
9.42,0.030504799983899187,62.253182311355864
9.43,0.022123923946656052,-149.537389720603
9.44,0.011280420827379387,61.67606374891442
9.45,0.0007546760412683392,-150.11848841106126
9.46,-0.013584168742830107,62.83428100181414
9.47,-0.018787461448417076,-150.17819033131383
9.48,-0.013107531243081682,61.70392464503228
9.49,-0.012035096868647727,-150.2378922515664
9.5,-0.01267061353497896,62.1934803911033
9.51,-0.009016392703574369,-150.14634930717912
9.52,-0.005203292705586971,61.33775286748323
9.53,-0.0028995447901362507,-149.29460191157588
9.54,0.0018271104157022951,62.591493192787055
9.55,0.0018271104157022951,-150.6956069735027
9.56,0.00595796874685531,61.67606374891442
9.57,0.007626199995974797,-150.9105338864119
9.58,0.0007546760412683392,61.859149637688944
9.59,-0.000595796874685531,-150.87869286227723
9.6,-0.004130858331153015,61.67606374891442
9.61,-0.012988371868144576,-150.54436210886288
9.62,-0.011598179160545003,62.925823946201405
9.63,-0.005203292705586971,-150.9105338864119
9.64,-0.007943958329140414,62.1934803911033
9.65,-0.009453310411677091,-151.00207683079918
9.66,-0.010088827078008325,63.01736689058867
9.67,-0.013266410409664491,-151.58317552125746
9.68,-0.009135552078511475,63.1686117552285
9.69,-0.006394886454958033,-151.2448646398263
9.7,-0.01632483436638355,62.133778470850736
9.71,-0.026254782277809065,-151.2448646398263
9.72,-0.025500106236540726,62.74273805742688
9.73,-0.015729037491698017,-151.30854668809567
9.74,-0.0032173031233018673,63.964637358596
9.75,0.0038130999979873984,-151.766261410032
9.76,0.03554921352290335,62.98552586645397
9.77,0.1191593749371062,-152.64984982976992
9.78,0.15427167075190681,63.534783532777546
9.79,0.10025275411375202,-151.97720819492437
9.8,0.05461471351284034,63.59846558104695
9.81,0.013901927075995723,-152.0408902431938
9.82,-0.043493171852043766,64.1755841434884
9.83,-0.06287643017514637,-152.10059216344635
9.84,-0.05064273434827014,63.87309441420874
9.85,-0.047624030183196775,-151.88566525053713
9.86,-0.06561709579869981,63.9009553103266
9.87,-0.19272042906494644,-151.51949347298807
9.88,-0.2957138488022519,64.42235208053232
9.89,0.06696756871465369,-152.55830688538268
9.9,1.0818479650539872,64.08404119910112
9.91,1.3778795721894046,-151.4279505286008
9.92,0.4052610341610982,63.87309441420874
9.93,-0.22048456342529218,-152.4349229168607
9.94,-0.23589584258382457,64.05618030298326
9.95,-0.1864447019849255,-152.59014790951736
9.96,-0.11824581972925505,63.9009553103266
9.97,-0.10680651973529286,-152.34337997247343
9.98,-0.10970606452542911,63.32383674788516
9.99,-0.08925037182789254,-152.55830688538268
