time_s,ECG1,ECG2,NIBP
0.0,-0.16519743804454942,0.0542037094221022,92.42837581574989
0.01,-0.06600683659858633,-0.0378565589614682,91.76626255577564
0.02,-0.1495433576708956,0.060582361598211655,91.34000655656833
0.03,-0.055005697165488615,-0.036684667050043446,91.0257498152671
0.04,-0.13273505938950694,0.06694617969949294,90.79055137366431
0.05,-0.05266119204040221,-0.0390136167980648,90.65549344501285
0.06,-0.1367748220665789,0.06405353510800145,90.63309359343162
0.07,-0.05208408308653479,-0.036684667050043446,90.74509285133773
0.08,-0.14431330777647208,0.06521059294459805,90.65549344501285
0.09,-0.06369840078311666,-0.0390136167980648,90.42029500341005
0.1,-0.15012046662476303,0.06636765078119465,90.16203789106189
0.11,-0.06600683659858633,-0.0378565589614682,89.94858048187615
0.12,-0.16000345745974262,0.06289647727140485,89.73578189185457
0.13,-0.07354532230847953,-0.0424847903078546,89.5895240374125
0.14,-0.17042748793897292,0.05653265917012356,89.52232448266885
0.15,-0.08573674895892881,-0.0436418481444512,89.54472433425006
0.16,-0.17623464678726386,0.05595413025182526,89.54472433425006
0.17,-0.08923547199175005,-0.04595596381764439,89.48872470529702
0.18,-0.1826189145894222,0.05595413025182526,89.4663248537158
0.19,-0.09269812571495459,-0.04653449273594269,89.60072396320311
0.2,-0.18723578622036158,0.05537560133352696,89.80298144659824
0.21,-0.09908239351711293,-0.04769155057253929,89.8925808529231
0.22,-0.19362005402251992,0.05595413025182526,89.8925808529231
0.23,-0.10023661142484777,-0.0453774348993461,89.84778114976066
0.24,-0.19362005402251992,0.05653265917012356,89.72458196606397
0.25,-0.10139082933258262,-0.048848608409135894,89.53352440845946
0.26,-0.19246583611478507,0.0530466515855056,89.2864672219019
0.27,-0.08689096686666366,-0.05231978191892569,88.93861070322885
0.28,-0.15823606128852363,0.07041735320928275,88.5795542587652
0.29,-0.070082668585275,-0.029742320030463853,88.25475641083753
0.3,-0.13039055426442056,0.12484357375380736,87.80544174088485
0.31,-0.06658394555245375,-0.007743387060300314,87.25598655798083
0.32,-0.17681175574113125,0.09590229376406424,86.70587255591266
0.33,-0.08458253105119397,-0.0025366267956156204,86.17881722458988
0.34,-0.18665867726649416,0.074481889712199,85.71896144801075
0.35,-0.13215795043563952,-0.07316165705249263,85.29204662963927
0.36,-0.21684868941568364,0.04147607321953962,84.86579063043197
0.37,-0.12461946472574634,-0.07491207788221568,84.42833470543405
0.38,-0.2086970254423063,0.03916195754634642,84.05807833517979
0.39,-0.10373533445766901,-0.07316165705249263,83.81102114862223
0.4,-0.19419716297638734,0.028733602942148866,83.57582270701943
0.41,-0.1240062864622622,-0.12700934867871896,83.31756559467127
0.42,-0.06312129182924923,0.029312131860447167,83.04810855653248
0.43,0.6515199396067022,0.21054002403609648,82.88010966967335
0.44,1.5297354901544509,0.6245293843404283,82.75691048597665
0.45,0.7640561856108494,0.23369601484285663,82.55465300258152
0.46,0.0221465561046623,0.09590229376406424,82.31879574181457
0.47,-0.08689096686666366,-0.06101254976822834,82.07239737442117
0.48,-0.14315908986873724,0.03684784187315322,81.89253974260727
0.49,-0.05558280611935604,-0.07142607029759773,81.72454085574812
0.5,-0.14896624871702818,0.04957547807571581,81.56708307551544
0.51,-0.05266119204040221,-0.06564078111461473,81.36548441128447
0.52,-0.14373619882260466,0.04957547807571581,81.17442685367996
0.53,-0.04223716156117191,-0.05754137625843855,81.06242759577387
0.54,-0.1286592274028183,0.05826824592501846,81.00642796682082
0.55,-0.024238576062431703,-0.04769155057253929,80.95042833786778
0.56,-0.11008353295021066,0.06636765078119465,80.82657033500692
0.57,0.003029822007803963,-0.034949080295148545,80.62497167077595
0.58,-0.07123688649300984,0.08720952591476158,80.34431470684656
0.59,0.04710651835942828,-0.015264262998178206,80.097257520289
0.6,-0.01323743662933398,0.10573728537513533,79.99645818817352
0.61,0.1317972573394724,0.014255545909863223,79.87325900447681
0.62,0.08887477889558291,0.1462639778056726,79.88445893026743
0.63,0.2611418016250082,0.062317948353106556,80.44511403896205
0.64,0.2321420766931703,0.19201226457572274,81.814140262073
0.65,0.3846791870622532,0.09995199619215234,84.01327863201735
0.66,0.3110256568249235,0.21401119754588627,86.76253100402987
0.67,0.4038319904687282,0.09243112025427444,89.69098218869213
0.68,0.26810317838103404,0.19143373565742444,92.19251855498294
0.69,0.2878330907413765,0.0524681226672073,94.13405863174329
0.7,0.09233743261878745,0.12600063159040398,95.8054828512007
0.71,0.11322156288686476,-0.008321915978598615,96.8266525556386
0.72,-0.05615991507322346,0.0814242367317786,97.17450907431164
0.73,-0.008007386734910473,-0.0436418481444512,97.21930877747408
0.74,-0.14546752568420693,0.062317948353106556,96.98345151670713
0.75,-0.07239110440074469,-0.05811990517673684,96.46759611117496
0.76,-0.18377313249715704,0.0530466515855056,95.78308299961947
0.77,-0.08689096686666366,-0.06679783895121133,94.93057100120485
0.78,-0.18665867726649416,0.05073253591231241,94.03260048046364
0.79,-0.07588982743356593,-0.06332666544142154,93.22488818521147
0.8,-0.17854308260273352,0.05073253591231241,92.37237618679684
0.81,-0.07065977753914242,-0.06332666544142154,91.53106411417284
0.82,-0.16696483421576838,0.0513110648306107,90.84655100261736
0.83,-0.06600683659858633,-0.06506225219631644,90.4084362584553
0.84,-0.164620329090682,0.059425303761615055,90.17323781685249
0.85,-0.06019967775029541,-0.05463389759211888,89.95978040766677
0.86,-0.16635165595228427,0.05711118808842186,89.84778114976066
0.87,-0.06658394555245375,-0.05927696301333344,89.80298144659824
0.88,-0.1745033199256616,0.059425303761615055,89.74698181764519
0.89,-0.07588982743356593,-0.05811990517673684,89.65672359215615
0.9,-0.18665867726649416,0.0530466515855056,89.48872470529702
0.91,-0.08923547199175005,-0.06679783895121133,89.21926766715823
0.92,-0.19711877705534117,0.04957547807571581,89.12966826083337
0.93,-0.10023661142484777,-0.07084754137929943,89.4663248537158
0.94,-0.20696569858070404,0.05015400699401411,89.70218211448275
0.95,-0.10777509713474097,-0.07316165705249263,89.62312381478434
0.96,-0.2081199164884389,0.0524681226672073,89.52232448266885
0.97,-0.11415936493689932,-0.07200459921589603,89.56712418583128
0.98,-0.22204267000049044,0.04494724672932941,89.71338204027336
0.99,-0.11415936493689932,-0.07200459921589603,89.84778114976066
1.0,-0.22146556104662302,0.04783989132082091,89.93738055608554
1.01,-0.11823519692358798,-0.07258312813419433,90.02697996241042
1.02,-0.21334996638286238,0.05073253591231241,90.16203789106189
1.03,-0.11415936493689932,-0.06564078111461473,90.12843811369005
1.04,-0.21334996638286238,0.051889593748909,89.95978040766677
1.05,-0.11185092912142963,-0.06969048354270282,89.74698181764519
1.06,-0.21915712523115333,0.04899694915741751,89.44392500213458
1.07,-0.11300514702916448,-0.07316165705249263,88.97286929976484
1.08,-0.21334996638286238,0.04899694915741751,88.60261292951057
1.09,-0.10373533445766901,-0.07026901246100113,88.32195596558118
1.1,-0.19131161820705023,0.06347500618970316,87.90689989216449
1.11,-0.0903896898994849,-0.05000566624573249,87.36798581588693
1.12,-0.16869616107737065,0.12021534240742097,86.7849308556111
1.13,-0.0979281756093781,-0.0436418481444512,86.24601677933353
1.14,-0.22784982884878136,0.08431688132327009,85.85336055749805
1.15,-0.11242803807529705,-0.028585262193867252,85.39350478091892
1.16,-0.24584841434752155,0.05595413025182526,84.88819048201319
1.17,-0.15881317024239106,-0.09922512652557242,84.45073455701527
1.18,-0.26381093053664506,0.023526842677464174,84.10287803834223
1.19,-0.16000345745974262,-0.11021717597324011,83.85647967094881
1.2,-0.2620796036750428,0.022948313759165874,83.59822255860065
1.21,-0.14781203080929334,-0.10616747354515202,83.31756559467127
1.22,-0.25858088064222157,0.01832008241277948,83.09290825969492
1.23,-0.15012046662476303,-0.168707933020681,82.8353099665109
1.24,-0.07646693638743335,0.0820027656500769,82.49865337362847
1.25,0.8174387638435858,0.28812223538738124,82.21799640969908
1.26,1.5726579685983404,0.5469323389143154,81.92613951997909
1.27,0.4235619028290707,0.10805140104832853,81.73574078153874
1.28,-0.1060437702731387,0.0773745343036905,81.522283372353
1.29,-0.11646780075236901,-0.08416854057498847,81.3990841886563
1.3,-0.20173564868628052,0.029890660778745467,81.38788426286568
1.31,-0.11646780075236901,-0.09691101085237923,81.30948478233142
1.32,-0.22204267000049044,0.032204776451938665,81.10722729893631
1.33,-0.10662087922700612,-0.09401836626088772,80.82657033500692
1.34,-0.21219574847512754,0.03625447888002676,80.64737152235716
1.35,-0.0985052845632455,-0.08821824300307657,80.5577721160323
1.36,-0.19942721287081086,0.033940363206833565,80.389114410009
1.37,-0.07992959011063788,-0.08243295382009358,80.22111552314986
1.38,-0.17331303270831003,0.04783989132082091,80.05245781712657
1.39,-0.051506974132667374,-0.06737636786950964,79.87325900447681
1.4,-0.14315908986873724,0.06463206402629976,79.71580122424413
1.41,0.001839534790452406,-0.04827007949083759,79.5702021889662
1.42,-0.07469954021621437,0.09243112025427444,79.48060278264133
1.43,0.07899178806060332,-0.01237161840668671,79.42394433452414
1.44,0.026799497045218387,0.13469339943970662,79.35674477978047
1.45,0.19791230186690886,0.032783305370236965,79.6934013726629
1.46,0.15383560551528455,0.1781127364617354,81.11842722472691
1.47,0.3023329532072955,0.058846774843316754,83.54222292964761
1.48,0.2089495106096233,0.19201226457572274,86.43707433693804
1.49,0.30987143891718866,0.061739419434808256,89.52232448266885
1.5,0.15964276436357547,0.1711703894421558,92.33877640942502
1.51,0.1834124394009899,0.002106438625598936,94.49311507620693
1.52,-0.01962170443149233,0.10920845888492513,96.01894026038642
1.53,0.011145416671564578,-0.05116272408232909,96.9498517393353
1.54,-0.164620329090682,0.05711118808842186,97.43276618665982
1.55,-0.10892931504247581,-0.09111088759456806,97.46636596403164
1.56,-0.2545411179651496,0.033940363206833565,97.02891003903372
1.57,-0.17681175574113125,-0.10443188679025711,96.2883972985252
1.58,-0.28354084289698755,0.032783305370236965,95.50242603569008
1.59,-0.1907345092531828,-0.10674600246345031,94.6835138146473
1.6,-0.29396487337621785,0.028733602942148866,93.7302024841172
1.61,-0.17623464678726386,-0.10096071328046732,92.80983211179476
1.62,-0.27311681241775726,0.03742637079145152,91.8901205586365
1.63,-0.15823606128852363,-0.09517542409748432,90.96975018631406
1.64,-0.25858088064222157,0.04494724672932941,90.19563766843372
1.65,-0.15823606128852363,-0.08937530083967317,89.65672359215615
1.66,-0.2620796036750428,0.046682833484224306,89.26406737032067
1.67,-0.15012046662476303,-0.09053235867626977,88.99526915134605
1.68,-0.2736939213716247,0.04436871781103111,88.97286929976484
1.69,-0.16058056641361004,-0.08706118516647997,88.93861070322885
1.7,-0.28065529812765044,0.03742637079145152,88.80421159374154
1.71,-0.17508042887952902,-0.09980365544387072,88.69221233583545
1.72,-0.30327075525733,0.030469189697043767,88.53475455560276
1.73,-0.1808515184182032,-0.09691101085237923,88.28835618820935
1.74,-0.3038478642111974,0.032783305370236965,88.00769922427997
1.75,-0.20115853973241313,-0.10385335787195882,87.87330011479266
1.76,-0.317770617723249,0.032783305370236965,87.85024144404728
1.77,-0.20408015381136693,-0.09864659760727412,87.99649929848935
1.78,-0.3258862123870096,0.031626247533640364,88.31075603979058
1.79,-0.2139270753367298,-0.09691101085237923,88.62501278109178
1.8,-0.3230006676176725,0.032204776451938665,88.90501092585703
1.81,-0.20927413439617373,-0.08937530083967317,89.09606848346154
1.82,-0.3253091034331422,0.04263313105613621,89.19686781557702
1.83,-0.22554139303331167,-0.09980365544387072,89.15206811241458
1.84,-0.34561612474735204,0.024105371595762475,89.16326803820519
1.85,-0.22438717512557682,-0.10616747354515202,89.2864672219019
1.86,-0.32996204437369825,0.030469189697043767,89.26406737032067
1.87,-0.21565840219833207,-0.09806806868897582,89.11846833504275
1.88,-0.30442497316506484,0.04726136240252261,88.8714111484852
1.89,-0.1849273504048919,-0.06216960760482494,88.55715440718399
1.9,-0.29457805163970197,0.09010217050625309,88.10849855639545
1.91,-0.20696569858070404,-0.07026901246100113,87.52544359611962
1.92,-0.33807763903745885,0.0733248318756024,86.86333033614535
1.93,-0.22261977895435786,-0.07549060680051399,86.22361692775232
1.94,-0.36357864093647557,0.022369784840867574,85.84216063170744
1.95,-0.2545411179651496,-0.1073245313817486,85.56150366777806
1.96,-0.3670773639692968,0.020055669167674376,85.11284781698953
1.97,-0.25280979110354734,-0.11659582814934956,84.63059218882917
1.98,-0.36880869083089907,0.012519959154968325,84.17007759308588
1.99,-0.23654253246640938,-0.11659582814934956,83.75502151966919
2.0,-0.37403874072532256,0.0015279097073006367,83.3511653720431
2.01,-0.2035030448574995,-0.17391469328536568,83.01450877916066
2.02,0.004184039915538806,0.16132056375625656,82.80171018913909
2.03,0.9757830330609597,0.34428404268680074,82.655452334697
2.04,1.1039733594387606,0.46819306972643393,82.49865337362847
2.05,0.11322156288686476,-0.0395921457163631,82.29639589023336
2.06,-0.2899251106991459,0.04147607321953962,82.04999752283994
2.07,-0.19131161820705023,-0.09633248193408092,81.73574078153874
2.08,-0.2986178143167739,0.04147607321953962,81.45508381760935
2.09,-0.19246583611478507,-0.09343983734258943,81.29828485654082
2.1,-0.30731051793440195,0.038004899709749816,81.19682670526117
2.11,-0.19362005402251992,-0.10038218436216902,81.15202700209873
2.12,-0.3055791910727997,0.04841842023911921,81.10722729893631
2.13,-0.18665867726649416,-0.08763971408477828,81.00642796682082
2.14,-0.2823866249892527,0.0530466515855056,80.8041704834257
2.15,-0.1518517934863653,-0.06969048354270282,80.53471344528691
2.16,-0.2643880394905125,0.06463206402629976,80.35551463263717
2.17,-0.1338892772972418,-0.06853342570610624,80.20991559735924
2.18,-0.22031134313888817,0.08026717889518199,80.00765811396413
2.19,-0.07239110440074469,-0.0401706746346614,79.82845930131438
2.2,-0.14723492185542592,0.11500858214273628,79.78300077898778
2.21,0.01810679342759035,0.0009493807890023374,79.74940100161595
2.22,-0.0370071116667484,0.15900644808306336,79.82845930131438
2.23,0.15383560551528455,0.04379018889273281,80.42271418738082
2.24,0.0940687594803897,0.21111855295439477,81.6909410783763
2.25,0.244910612297487,0.0808457078134803,83.67662203913491
2.26,0.13641412897041177,0.21806089997397438,86.33561618565841
2.27,0.2396805624030635,0.06752470861779125,89.19686781557702
2.28,0.06333770768694952,0.17637714970684049,91.79986233314746
2.29,0.09291454157265487,0.006156141053687032,94.07805900279024
2.3,-0.11473647389076674,0.11616563997933288,95.74948322224765
2.31,-0.0753127184796985,-0.06101254976822834,96.83785248142921
2.32,-0.2371196414202768,0.06578912186289634,97.28650833221774
2.33,-0.1617347843213449,-0.08474706949328678,97.20810885168348
2.34,-0.30211653734959515,0.05479707241522866,96.66985359457007
2.35,-0.19477427193025476,-0.08879677192137488,95.86148248015374
2.36,-0.3230006676176725,0.04610430456592601,95.07617003648278
2.37,-0.2086970254423063,-0.09633248193408092,94.29085759281182
2.38,-0.3160392908616467,0.04957547807571581,93.41594574281598
2.39,-0.18958029134544796,-0.08821824300307657,92.46197559312172
2.4,-0.3003491411783762,0.04783989132082091,91.56466389154467
2.41,-0.17854308260273352,-0.08590412732988337,90.82415115103615
2.42,-0.2846950608047224,0.061160890516509955,90.0045801108292
2.43,-0.16058056641361004,-0.07664766463711059,89.20806774136763
2.44,-0.28065529812765044,0.0739033607939007,88.66981248425422
2.45,-0.1623118932752123,-0.07026901246100113,88.29955611399997
2.46,-0.2846950608047224,0.06926029537268615,88.08609870481423
2.47,-0.1727359237544426,-0.07200459921589603,87.89569996637387
2.48,-0.2899251106991459,0.06752470861779125,87.73824218614119
2.49,-0.17854308260273352,-0.07780472247370718,87.59264315086327
2.5,-0.30211653734959515,0.06810323753608954,87.43518537063059
2.51,-0.18377313249715704,-0.07780472247370718,87.26718648377144
2.52,-0.30211653734959515,0.06405353510800145,87.15518722586535
2.53,-0.18723578622036158,-0.07780472247370718,87.07612892616693
2.54,-0.30731051793440195,0.06347500618970316,87.12092862932937
2.55,-0.1907345092531828,-0.07838325139200548,87.27838640956206
2.56,-0.3108092409672232,0.062317948353106556,87.4575852222118
2.57,-0.19477427193025476,-0.08011883814690038,87.85024144404728
2.58,-0.31719350876938157,0.061160890516509955,88.33315589137179
2.59,-0.19885010391694344,-0.08359001165669018,88.70341226162606
2.6,-0.31661639981551415,0.060582361598211655,88.90501092585703
2.61,-0.19477427193025476,-0.08301148273839187,88.97286929976484
2.62,-0.29919492327064134,0.06752470861779125,89.01766900292726
2.63,-0.1570818433807888,-0.06911195462440453,88.93861070322885
2.64,-0.2754252482332269,0.09821640943725744,88.71461218741666
2.65,-0.15592762547305394,-0.025114088684077458,88.43395522348727
2.66,-0.3015394283957277,0.09590229376406424,88.0524989274424
2.67,-0.19246583611478507,-0.0442203770627495,87.59264315086327
2.68,-0.30500208211893226,0.09763788051895914,87.08732885195754
2.69,-0.2058114806729692,-0.08416854057498847,86.67227277854084
2.7,-0.34619323370121946,0.04321165997443451,86.27961655670536
2.71,-0.21684868941568364,-0.09459689517918603,85.83096070591684
2.72,-0.3386547479913263,0.04552577564762771,85.26964677805806
2.73,-0.20465726276523435,-0.09575395301578263,84.59699241145735
2.74,-0.3230006676176725,0.038004899709749816,84.08047818676101
2.75,-0.22727271989491393,-0.12527376192382406,83.75502151966919
2.76,-0.28065529812765044,-0.02164291517428766,83.49742322648517
2.77,0.16718125007346868,0.04436871781103111,83.23916611413699
2.78,0.942707476142433,0.5133628275781857,82.93610929862639
2.79,1.3597769032404952,0.36919045432328396,82.71145196365005
2.8,0.07029908444297528,0.1358504572763032,82.49865337362847
2.81,-0.12808211844895087,-0.06679783895121133,82.26279611286152
2.82,-0.26615543566173144,0.060003832679913355,81.85893996523544
2.83,-0.15012046662476303,-0.09806806868897582,81.34308455970326
2.84,-0.2760023571870943,0.0524681226672073,81.10722729893631
2.85,-0.1547734075653191,-0.09806806868897582,81.06242759577387
2.86,-0.2678867625233337,0.05073253591231241,80.9840281152396
2.87,-0.14546752568420693,-0.09286130842429113,80.93922841207716
2.88,-0.2498881770245935,0.060003832679913355,80.87137003816935
2.89,-0.11881230587745541,-0.08301148273839187,80.66977137393839
2.9,-0.2290040467565162,0.06636765078119465,80.43391411317144
2.91,-0.10312215619418488,-0.07375502004561908,80.15325714924205
2.92,-0.2035030448574995,0.08026717889518199,79.94045855922047
2.93,-0.06658394555245375,-0.056962847340140246,79.80605944973316
2.94,-0.15592762547305394,0.09821640943725744,79.67100152108169
2.95,0.006492475731008492,-0.034370551376850245,79.5590022631756
2.96,-0.06019967775029541,0.13700751511289982,79.59260204054742
2.97,0.12306848441222763,0.01772671941965302,79.92925863342985
2.98,0.0784146791067359,0.18796256214763465,80.87137003816935
2.99,0.2553346427767173,0.05826824592501846,82.56585292837214
3.0,0.17702817159883155,0.21863942889227267,84.9672487817116
3.01,0.3110256568249235,0.06636765078119465,87.85024144404728
3.02,0.15672115028462166,0.19432638024891594,90.79055137366431
3.03,0.20837240165575588,0.022369784840867574,93.42714566860658
3.04,0.00010820792885014154,0.14452839105077772,95.36802692620277
3.05,0.034915091708979,-0.028006733275568952,96.6355949980341
3.06,-0.16115767536747747,0.09125922834284968,97.37676655770677
3.07,-0.09500656153042426,-0.07258312813419433,97.51116566719408
3.08,-0.2574266627344867,0.06636765078119465,97.21930877747408
3.09,-0.15939027919625848,-0.08474706949328678,96.84905240721982
3.1,-0.28934800174527847,0.06289647727140485,96.45639618538434
3.11,-0.1779659736488661,-0.08937530083967317,95.8054828512007
3.12,-0.2980407053629065,0.059425303761615055,94.8633714464612
3.13,-0.17158170584670776,-0.08532559841158507,93.81980189044206
3.14,-0.2846950608047224,0.06289647727140485,92.80983211179476
3.15,-0.15242890244023272,-0.08590412732988337,92.04691951970503
3.16,-0.2643880394905125,0.07099588212758104,91.48560559184625
3.17,-0.1367748220665789,-0.08069736706519869,90.83535107682675
3.18,-0.25046528597846096,0.07273146888247595,90.24043737159614
3.19,-0.12923633635668572,-0.07258312813419433,89.94858048187615
3.2,-0.24757974120912382,0.08315982348667349,89.85898107555128
3.21,-0.12750500949508345,-0.07084754137929943,89.84778114976066
3.22,-0.2597711678595731,0.0773745343036905,89.85898107555128
3.23,-0.1448904167303395,-0.07838325139200548,89.7581817434358
3.24,-0.26673254461559887,0.07099588212758104,89.47752477950641
3.25,-0.15127468453249787,-0.07954030922860209,89.10726840925214
3.26,-0.278310793002564,0.06983882429098444,88.8826110742758
3.27,-0.15823606128852363,-0.08243295382009358,88.79301166795094
3.28,-0.28296373394312013,0.07273146888247595,88.73701203899789
3.29,-0.16346611118294715,-0.07838325139200548,88.66981248425422
3.3,-0.284117951850855,0.06868176645438785,88.5683543329746
3.31,-0.1675419431696358,-0.08937530083967317,88.55715440718399
3.32,-0.2870034966201921,0.06636765078119465,88.61381285530118
3.33,-0.16927327003123807,-0.08590412732988337,88.4563550750685
3.34,-0.29107932860688074,0.061739419434808256,88.40035544611546
3.35,-0.17042748793897292,-0.08590412732988337,88.54595448139337
3.36,-0.29107932860688074,0.06926029537268615,88.77061181636971
3.37,-0.16519743804454942,-0.07549060680051399,88.90501092585703
3.38,-0.28123240708151787,0.07041735320928275,88.86021122269459
3.39,-0.15419629861145168,-0.07780472247370718,88.70341226162606
3.4,-0.2498881770245935,0.08026717889518199,88.4563550750685
3.41,-0.14258198091486982,-0.06216960760482494,88.19809796272033
3.42,-0.23830992863762837,0.12021534240742097,87.94049966953631
3.43,-0.14838913976316076,-0.05463389759211888,87.63744285402571
3.44,-0.2870034966201921,0.09590229376406424,87.10972870353876
3.45,-0.1576589523346562,-0.041327732471258,86.52667374326292
3.46,-0.29457805163970197,0.06983882429098444,86.02135944435719
3.47,-0.19827299496307602,-0.1084815892183452,85.57270359356866
3.48,-0.3183477266771164,0.04205460213783792,85.16884744594257
3.49,-0.19362005402251992,-0.11021717597324011,84.73139152094465
3.5,-0.3061563000266671,0.03974048646464472,84.20433618962187
3.51,-0.17681175574113125,-0.11138906788466486,83.6654221133443
3.52,-0.30850080515175354,0.029890660778745467,83.44076477836796
3.53,-0.16519743804454942,-0.18143556922324358,83.37356522362431
3.54,-0.0776211542951682,0.11963681348912268,83.1159669304403
3.55,0.8806682636016853,0.2968150032366839,82.74571056018604
3.56,1.577888018492764,0.5596748091917061,82.42025389309421
3.57,0.36960221564246676,0.06926029537268615,82.12839700337422
3.58,-0.16058056641361004,0.09705935160066084,81.85893996523544
3.59,-0.11996652378519025,-0.09228277950599283,81.6342826302591
3.6,-0.24292680026856775,0.04899694915741751,81.3990841886563
3.61,-0.12981344531055314,-0.11081053896636657,81.11842722472691
3.62,-0.2510423949323284,0.05479707241522866,81.01762789261143
3.63,-0.1286592274028183,-0.10443188679025711,81.00642796682082
3.64,-0.2336569876970723,0.058846774843316754,80.93922841207716
3.65,-0.10662087922700612,-0.09228277950599283,80.75937078026325
3.66,-0.21915712523115333,0.061739419434808256,80.47871381633387
3.67,-0.09385234362268942,-0.08937530083967317,80.26591522631229
3.68,-0.20000432182467828,0.06983882429098444,80.08605759449839
3.69,-0.060812856013779545,-0.07433354896391739,79.94045855922047
3.7,-0.16404322013681458,0.08894511266965649,79.81725937552376
3.71,-0.017854308260273354,-0.05116272408232909,79.74940100161595
3.72,-0.10431244341153643,0.11732269781592948,79.61500189212865
3.73,0.07437491642966394,-0.015842791916476504,79.53660241159437
3.74,0.020415229243060037,0.16363467942944976,79.76060092740657
3.75,0.2141434911944301,0.032204776451938665,80.63617159656656
3.76,0.15964276436357547,0.20880443728120157,82.3411955933958
3.77,0.3214857566137705,0.06578912186289634,84.82099092726953
3.78,0.2222590858581907,0.22386102323178553,87.71584233455997
3.79,0.3290242423236637,0.05711118808842186,90.62189366764102
3.8,0.15672115028462166,0.19490490916721423,93.05688929835233
3.81,0.1909509251108831,0.010784372400073426,94.96417077857669
3.82,-0.02600597223365068,0.12948663917502193,96.27719737273459
3.83,0.013453852487034264,-0.05174125300062739,96.9498517393353
3.84,-0.17508042887952902,0.07911012105858539,97.23050870326469
3.85,-0.09212101676108717,-0.07780472247370718,97.16330914852104
3.86,-0.24584841434752155,0.062317948353106556,96.77065292668556
3.87,-0.13792903997431374,-0.08648265624818167,96.19813907303617
3.88,-0.26554225739824733,0.05826824592501846,95.55908448380728
3.89,-0.14896624871702818,-0.08995382975797146,94.78431314676278
3.9,-0.26673254461559887,0.05826824592501846,93.90940129676694
3.91,-0.14027354509940015,-0.08706118516647997,93.05688929835233
3.92,-0.25858088064222157,0.05711118808842186,92.20371848077356
3.93,-0.13273505938950694,-0.08416854057498847,91.37360633394016
3.94,-0.24873395911685867,0.058846774843316754,90.81295122524553
3.95,-0.12461946472574634,-0.08069736706519869,90.46509470657249
3.96,-0.2388870375914958,0.07041735320928275,90.24043737159614
3.97,-0.11646780075236901,-0.07433354896391739,90.11723818789945
3.98,-0.23596542351254196,0.06868176645438785,89.98218025924798
3.99,-0.1211207416929251,-0.07375502004561908,89.87018100134189
4.0,-0.24061836445309806,0.0796886499768837,89.80298144659824
4.01,-0.12285206855452735,-0.06969048354270282,89.67912344373738
4.02,-0.24119547340696548,0.0796886499768837,89.43272507634397
4.03,-0.13331216834337437,-0.07375502004561908,89.10726840925214
4.04,-0.25511822691901703,0.0773745343036905,88.8714111484852
4.05,-0.14027354509940015,-0.07375502004561908,88.7594118905791
4.06,-0.2620796036750428,0.07157441104587935,88.73701203899789
4.07,-0.15242890244023272,-0.08011883814690038,88.73701203899789
4.08,-0.26846387147720113,0.06521059294459805,88.8826110742758
4.09,-0.15535051651918652,-0.09053235867626977,89.16326803820519
4.1,-0.27192652520040567,0.062317948353106556,89.21926766715823
4.11,-0.14781203080929334,-0.08359001165669018,89.18566788978642
4.12,-0.27657946614096174,0.06405353510800145,89.20806774136763
4.13,-0.15012046662476303,-0.08243295382009358,89.20806774136763
4.14,-0.2725036341542731,0.06694617969949294,89.21926766715823
4.15,-0.15242890244023272,-0.08590412732988337,89.3543255958097
4.16,-0.269618089384936,0.06347500618970316,89.47752477950641
4.17,-0.1495433576708956,-0.08821824300307657,89.27526729611128
4.18,-0.269618089384936,0.060582361598211655,88.91621085164763
4.19,-0.14546752568420693,-0.09053235867626977,88.53475455560276
4.2,-0.2522326821496799,0.060582361598211655,88.27715626241874
4.21,-0.1211207416929251,-0.07780472247370718,88.03009907586119
4.22,-0.2238100661717094,0.08720952591476158,87.59264315086327
4.23,-0.08981258094561748,-0.035527609213446845,86.97532959405144
4.24,-0.21219574847512754,0.13064369701161851,86.38041588882085
4.25,-0.13096766321828798,-0.05405536867382059,85.84216063170744
4.26,-0.26323382158277764,0.10747287213003022,85.33750515196587
4.27,-0.14373619882260466,-0.05927696301333344,84.86579063043197
4.28,-0.28642638766632467,0.04957547807571581,84.42833470543405
4.29,-0.1698503789851055,-0.10616747354515202,84.00207870622674
4.3,-0.2933877644223504,0.04436871781103111,83.57582270701943
4.31,-0.17508042887952902,-0.11543877031275296,83.21676626255578
4.32,-0.28065529812765044,0.038004899709749816,83.08170833390432
4.33,-0.15127468453249787,-0.1096386470549418,82.95850915020762
4.34,-0.3015394283957277,0.009627314563476827,82.75691048597665
4.35,-0.09442945257655684,-0.16117222300797493,82.47625352204726
4.36,0.20952661956349072,0.2348530726794532,82.18439663232726
4.37,1.2594320838867974,0.4126097913453127,81.98213914893213
4.38,1.1144334592276077,0.49482023404298386,81.84774003944483
4.39,0.18283533044712247,-0.03205643570365705,81.75814063311995
4.4,-0.23654253246640938,0.06752470861779125,81.41028411444691
4.41,-0.09154390780721974,-0.09575395301578263,81.02882781840204
4.42,-0.21565840219833207,0.05073253591231241,80.91682856049594
4.43,-0.11008353295021066,-0.10385335787195882,80.89376988975057
4.44,-0.22146556104662302,0.05479707241522866,80.79297055763509
4.45,-0.10373533445766901,-0.10038218436216902,80.65857144814777
4.46,-0.20754280753457147,0.061160890516509955,80.5123135937057
4.47,-0.08458253105119397,-0.08879677192137488,80.389114410009
4.48,-0.19188872716091765,0.06868176645438785,80.19871567156864
4.49,-0.06542972764471891,-0.08359001165669018,79.94045855922047
4.5,-0.17042748793897292,0.0785315921402871,79.79420070477839
4.51,-0.027737299095252948,-0.06390519435971984,79.6822014468723
4.52,-0.12808211844895087,0.10053052511045063,79.43514426031474
4.53,0.029107932860688072,-0.0447989059810478,79.16634604134012
4.54,-0.04977564727106511,0.12715768942700056,78.98648840952622
4.55,0.11960583068902311,-0.01121456057009011,78.97528848373561
4.56,0.07610624329126621,0.16885627376896262,79.44700300526951
4.57,0.26171891057887564,0.04147607321953962,80.75937078026325
4.58,0.20545078757680207,0.22038984972199574,82.89130959546395
4.59,0.3574468583016342,0.06463206402629976,85.52790389040622
4.6,0.24952748392842639,0.22328249431348723,88.43395522348727
4.61,0.3469867585127872,0.0513110648306107,91.21680737287163
4.62,0.1578753681923565,0.1810053810532269,93.43834559439719
4.63,0.18687509312419442,-0.004272213550510519,95.18882811355303
4.64,-0.01962170443149233,0.12368651591721078,96.44519625959373
4.65,0.01810679342759035,-0.05347683975552229,97.0065101874525
4.66,-0.15592762547305394,0.08663099699646329,97.07370974219616
4.67,-0.07646693638743335,-0.08416854057498847,96.87145225880104
4.68,-0.2162355111521995,0.0739033607939007,96.43399633380312
4.69,-0.11069671121369479,-0.08648265624818167,95.79428292541009
4.7,-0.24350390922243517,0.07041735320928275,95.13216966543582
4.71,-0.13215795043563952,-0.08879677192137488,94.40285685071791
4.72,-0.24292680026856775,0.06868176645438785,93.48314529755963
4.73,-0.10950642399634324,-0.07838325139200548,92.540375073656
4.74,-0.22554139303331167,0.0767960053853922,91.69906300103197
4.75,-0.10373533445766901,-0.07722619355540888,91.03694974105773
4.76,-0.2162355111521995,0.0785315921402871,90.52109433552553
4.77,-0.09908239351711293,-0.08243295382009358,90.12843811369005
4.78,-0.21277285742899496,0.0785315921402871,89.79178152080762
4.79,-0.09269812571495459,-0.07084754137929943,89.55592426004067
4.8,-0.2208884520927556,0.07795306322198879,89.63432374057494
4.81,-0.0979281756093781,-0.06679783895121133,89.73578189185457
4.82,-0.22496428407944424,0.0825812945683752,89.5783241116219
4.83,-0.11127382016756221,-0.07491207788221568,89.29766714769251
4.84,-0.23830992863762837,0.0808457078134803,89.01766900292726
4.85,-0.11531358284463417,-0.07316165705249263,88.7594118905791
4.86,-0.23946414654536322,0.0756389475487956,88.61381285530118
4.87,-0.12519657367961376,-0.08069736706519869,88.59141300371996
4.88,-0.25280979110354734,0.06810323753608954,88.53475455560276
4.89,-0.1338892772972418,-0.07606913571881228,88.43395522348727
4.9,-0.25858088064222157,0.0756389475487956,88.65861255846362
4.91,-0.141427763007135,-0.07780472247370718,89.02886892871788
4.92,-0.26323382158277764,0.07041735320928275,89.12966826083337
4.93,-0.14781203080929334,-0.08243295382009358,89.15206811241458
4.94,-0.26673254461559887,0.0837383524049718,89.26406737032067
4.95,-0.1466578129015585,-0.07316165705249263,89.36552552160032
4.96,-0.26381093053664506,0.07795306322198879,89.37672544739092
4.97,-0.15304208070371683,-0.07549060680051399,89.30886707348311
4.98,-0.2707723072926708,0.0773745343036905,89.19686781557702
4.99,-0.15361918965758425,-0.08359001165669018,88.98406922555544
5.0,-0.2736939213716247,0.074481889712199,88.7482119647885
5.01,-0.15650473442692137,-0.08359001165669018,88.47875492664971
5.02,-0.2760023571870943,0.07099588212758104,88.13089840797667
5.03,-0.15012046662476303,-0.08879677192137488,87.65984270560692
5.04,-0.26554225739824733,0.07157441104587935,87.10972870353876
5.05,-0.11823519692358798,-0.07549060680051399,86.59387329800657
5.06,-0.24061836445309806,0.08952364158795478,86.11161766984623
5.07,-0.10373533445766901,-0.025692617602375754,85.55030374198745
5.08,-0.2417725823608329,0.09821640943725744,84.956048855921
5.09,-0.15242890244023272,-0.048848608409135894,84.4731344085965
5.1,-0.25858088064222157,0.11963681348912268,84.08047818676101
5.11,-0.1617347843213449,-0.08185442490179527,83.73262166808796
5.12,-0.3009262501322436,0.05015400699401411,83.47502337490396
5.13,-0.18723578622036158,-0.09401836626088772,83.21676626255578
5.14,-0.3038478642111974,0.046682833484224306,82.98090900178883
5.15,-0.18435024145102447,-0.1084815892183452,82.79051026334847
5.16,-0.30211653734959515,0.04379018889273281,82.63305248311579
5.17,-0.18665867726649416,-0.12122405949573596,82.44265374467543
5.18,-0.2986178143167739,-0.02337850192918256,82.27399603865213
5.19,0.0024166437443198276,-0.0430633192261529,82.17319670653664
5.2,0.6822509914001423,0.4508223681026568,81.95973929735092
5.21,1.6213876058905208,0.3952390897215356,81.64614137521386
5.22,0.24198899821853317,0.24701701403854567,81.47748366919056
5.23,-0.0370071116667484,-0.06216960760482494,81.3990841886563
5.24,-0.27311681241775726,0.06578912186289634,81.26402626000483
5.25,-0.13215795043563952,-0.09748953977067752,81.02882781840204
5.26,-0.26323382158277764,0.04899694915741751,80.82657033500692
5.27,-0.14027354509940015,-0.09980365544387072,80.71457107710081
5.28,-0.2597711678595731,0.0542037094221022,80.61377174498534
5.29,-0.14200487196100242,-0.10211777111706392,80.43391411317144
5.3,-0.25338690005741477,0.0524681226672073,80.17631581998742
5.31,-0.1211207416929251,-0.09748953977067752,79.95165848501108
5.32,-0.23192566083547003,0.05826824592501846,79.8620590786862
5.33,-0.0985052845632455,-0.07896178031030378,79.78300077898778
5.34,-0.19942721287081086,0.0796886499768837,79.62620181791925
5.35,-0.05962256879642799,-0.06564078111461473,79.40154448294291
5.36,-0.15650473442692137,0.09763788051895914,79.22234567029317
5.37,-0.005698950919440788,-0.0390136167980648,79.14394618975889
5.38,-0.07296821335461211,0.1364289861946015,79.07674663501524
5.39,0.10337464136150187,0.006734669971985331,79.09914648659647
5.4,0.05695343988479116,0.18622697539273975,79.44700300526951
5.41,0.2367950176337264,0.059425303761615055,80.60257181919472
5.42,0.1607969822713103,0.22906778349647022,82.74571056018604
5.43,0.3023329532072955,0.0733248318756024,85.6063033709405
5.44,0.1654138539022497,0.20996149511779819,88.6362127068824
5.45,0.24141188926466575,0.0530466515855056,91.29520685340589
5.46,0.048260736267163123,0.1659636291774711,93.55034485230328
5.47,0.08014600596833817,-0.019328799501094462,95.23362781671545
5.48,-0.12461946472574634,0.11269446646954308,96.24293877619861
5.49,-0.0753127184796985,-0.06332666544142154,96.73705314931372
5.5,-0.23250276978933745,0.0785315921402871,96.6355949980341
5.51,-0.1547734075653191,-0.09111088759456806,96.22053892461739
5.52,-0.29396487337621785,0.06289647727140485,95.62628403855093
5.53,-0.18608156831262673,-0.09343983734258943,94.91937107541425
5.54,-0.3142718946904277,0.04436871781103111,94.06620025783548
5.55,-0.1826189145894222,-0.09864659760727412,93.1464887046772
5.56,-0.29457805163970197,0.05479707241522866,92.22611833235477
5.57,-0.18146469668168735,-0.09864659760727412,91.32880663077772
5.58,-0.28354084289698755,0.059425303761615055,90.4084362584553
5.59,-0.1617347843213449,-0.08879677192137488,89.52232448266885
5.6,-0.27946501091029885,0.06289647727140485,88.96166937397422
5.61,-0.1623118932752123,-0.08821824300307657,88.60261292951057
5.62,-0.28065529812765044,0.061160890516509955,88.26595633662814
5.63,-0.16696483421576838,-0.08359001165669018,87.99649929848935
5.64,-0.2922335465146156,0.07041735320928275,87.83904151825668
5.65,-0.17100459689284034,-0.08185442490179527,87.70464240876936
5.66,-0.28877089279141105,0.06926029537268615,87.59264315086327
5.67,-0.17623464678726386,-0.08706118516647997,87.41278551904936
5.68,-0.2980407053629065,0.0756389475487956,87.15518722586535
5.69,-0.18319602354328962,-0.08648265624818167,86.96412966826084
5.7,-0.30850080515175354,0.07041735320928275,87.00892937142328
5.71,-0.19419716297638734,-0.08648265624818167,87.17758707744657
5.72,-0.31950194458485126,0.05711118808842186,87.42398544483997
5.73,-0.19711877705534117,-0.09286130842429113,87.73824218614119
5.74,-0.3212332714464535,0.05537560133352696,88.0412990016518
5.75,-0.20988731265965788,-0.09286130842429113,88.35555574295302
5.76,-0.3136947857365603,0.062317948353106556,88.66981248425422
5.77,-0.19477427193025476,-0.09111088759456806,88.92741077743824
5.78,-0.31661639981551415,0.06463206402629976,89.15206811241458
5.79,-0.1976958860092086,-0.07780472247370718,89.24166751873946
5.8,-0.30442497316506484,0.06578912186289634,89.15206811241458
5.81,-0.17565753783339644,-0.06737636786950964,88.98406922555544
5.82,-0.2748481392793595,0.08952364158795478,88.78181174216031
5.83,-0.14723492185542592,-0.0378565589614682,88.54595448139337
5.84,-0.26381093053664506,0.1283295813384253,88.2323565592563
5.85,-0.17042748793897292,-0.048848608409135894,87.85024144404728
5.86,-0.30731051793440195,0.10980182187805158,87.36798581588693
5.87,-0.19419716297638734,-0.06506225219631644,86.85213041035475
5.88,-0.3467703426550869,0.05073253591231241,86.3244162598678
5.89,-0.2185800162772859,-0.08995382975797146,85.75256122538256
5.9,-0.3345789160046376,0.0513110648306107,85.18004737173318
5.91,-0.21450418429059723,-0.10038218436216902,84.64179211461978
5.92,-0.32415488552540733,0.05537560133352696,84.23793596699369
5.93,-0.20173564868628052,-0.10327482895366051,83.86767959673944
5.94,-0.34269451066839823,0.02699801618725397,83.46316462994919
5.95,-0.1518517934863653,-0.15249428923350045,83.13836678202152
5.96,0.10279753240763446,0.21574678430078117,82.8353099665109
5.97,1.0941264379133977,0.3813395616075482,82.62185255732518
5.98,1.0645135347180756,0.500620357300795,82.42025389309421
5.99,0.13410569315494208,-0.041327732471258,82.15079685495543
6.0,-0.25858088064222157,0.0762174764670939,81.85893996523544
6.01,-0.15012046662476303,-0.08937530083967317,81.66854122679507
6.02,-0.26846387147720113,0.05711118808842186,81.61188277867788
6.03,-0.15881317024239106,-0.09864659760727412,81.46628374339996
6.04,-0.2725036341542731,0.06289647727140485,81.17442685367996
6.05,-0.1466578129015585,-0.08590412732988337,80.9840281152396
6.06,-0.25280979110354734,0.07215293996417764,80.97282818944899
6.07,-0.13096766321828798,-0.08706118516647997,80.9840281152396
6.08,-0.22438717512557682,0.0825812945683752,80.88256996395997
6.09,-0.10777509713474097,-0.07200459921589603,80.71457107710081
6.1,-0.20696569858070404,0.09010217050625309,80.45631396475265
6.11,-0.06950555963140757,-0.05985549193163174,80.20991559735924
6.12,-0.16519743804454942,0.10573728537513533,80.08605759449839
6.13,-0.020775922339227176,-0.0378565589614682,79.95165848501108
6.14,-0.08923547199175005,0.13411487052140833,79.73820107582534
6.15,0.07437491642966394,-0.00020767704759426132,79.62620181791925
6.16,0.025068170183616123,0.18622697539273975,79.65980159529109
6.17,0.21472060014829752,0.059425303761615055,80.15325714924205
6.18,0.15149110039019814,0.2348530726794532,81.67974115258569
6.19,0.30175584425342805,0.08894511266965649,83.9684789288549
6.2,0.18456665730872474,0.23138189916966342,86.51547381747231
6.21,0.27621877304479464,0.06521059294459805,89.21926766715823
6.22,0.0940687594803897,0.19895461159530234,91.68786307524137
6.23,0.12076004859675796,0.0026849675438972353,93.7302024841172
6.24,-0.0828512041895917,0.12195092916231587,95.16576944280764
6.25,-0.031199952818457475,-0.05289831083722399,96.06373996354885
6.26,-0.20173564868628052,0.08836658375135818,96.57959536908105
6.27,-0.11765808796972056,-0.07433354896391739,96.61319514645287
6.28,-0.2562724448267519,0.07911012105858539,96.32199707589703
6.29,-0.1547734075653191,-0.08359001165669018,95.77188307382886
6.3,-0.27946501091029885,0.06926029537268615,95.02017040752973
6.31,-0.14896624871702818,-0.08243295382009358,94.17885833490573
6.32,-0.2626567126289102,0.06868176645438785,93.28088781416452
6.33,-0.13562060415884405,-0.08185442490179527,92.32757648363442
6.34,-0.2516195038861958,0.06926029537268615,91.40720611131198
6.35,-0.11881230587745541,-0.07664766463711059,90.61069374185041
6.36,-0.23250276978933745,0.0814242367317786,89.87018100134189
6.37,-0.11704490970623643,-0.07142607029759773,89.19686781557702
6.38,-0.23192566083547003,0.08315982348667349,88.86021122269459
6.39,-0.10719798818087355,-0.06911195462440453,88.70341226162606
6.4,-0.23192566083547003,0.09068069942455138,88.59141300371996
6.41,-0.11473647389076674,-0.06274813652312324,88.43395522348727
6.42,-0.23250276978933745,0.09243112025427444,88.50115477823093
6.43,-0.11938941483132283,-0.06969048354270282,88.65861255846362
6.44,-0.24465812713017002,0.08547393915986669,88.47875492664971
6.45,-0.13969643614553273,-0.07896178031030378,88.2323565592563
6.46,-0.25569533587288445,0.07911012105858539,88.0412990016518
6.47,-0.14085065405326758,-0.07896178031030378,87.83904151825668
6.48,-0.2643880394905125,0.07215293996417764,87.90689989216449
6.49,-0.1448904167303395,-0.07491207788221568,88.14209833376728
6.5,-0.2701951983388034,0.07157441104587935,88.34435581716241
6.51,-0.14200487196100242,-0.08127589598349698,88.60261292951057
6.52,-0.2597711678595731,0.0750604186304973,88.8714111484852
6.53,-0.14546752568420693,-0.07491207788221568,89.1744679639958
6.54,-0.26615543566173144,0.07911012105858539,89.43272507634397
6.55,-0.13562060415884405,-0.07722619355540888,89.54472433425006
6.56,-0.23481120560480714,0.09125922834284968,89.53352440845946
6.57,-0.11415936493689932,-0.05927696301333344,89.43272507634397
6.58,-0.20465726276523435,0.1358504572763032,89.23046759294884
6.59,-0.1060437702731387,-0.034370551376850245,88.96166937397422
6.6,-0.24757974120912382,0.11443005322443799,88.7482119647885
6.61,-0.13273505938950694,-0.033792022458551944,88.46755500085911
6.62,-0.25569533587288445,0.08778805483305989,88.0412990016518
6.63,-0.17681175574113125,-0.09806806868897582,87.52544359611962
6.64,-0.2986178143167739,0.051889593748909,86.96412966826084
6.65,-0.164620329090682,-0.09806806868897582,86.51547381747231
6.66,-0.2754252482332269,0.059425303761615055,86.11161766984623
6.67,-0.15012046662476303,-0.10501041570855542,85.62870322252171
6.68,-0.2603482768134405,0.0513110648306107,85.05684818803648
6.69,-0.16696483421576838,-0.15307281815179874,84.54033396334015
6.7,-0.14838913976316076,0.03684784187315322,84.18127751887648
6.71,0.5523293381607391,0.15148557214518546,83.8340798193676
6.72,1.3876224102645984,0.6285790867685164,83.55342285543821
6.73,0.8087099909163411,0.2354316015977515,83.3623652978337
6.74,-0.021930140246962018,0.11963681348912268,83.1159669304403
6.75,-0.12169785064679252,-0.08879677192137488,82.85770981809213
6.76,-0.19711877705534117,0.061160890516509955,82.63305248311579
6.77,-0.08981258094561748,-0.10096071328046732,82.49865337362847
6.78,-0.21450418429059723,0.0530466515855056,82.30759581602396
6.79,-0.09096679885335232,-0.10096071328046732,82.07239737442117
6.8,-0.19711877705534117,0.059425303761615055,81.89253974260727
6.81,-0.06254418287538181,-0.09517542409748432,81.78054048470116
6.82,-0.1745033199256616,0.06694617969949294,81.67974115258569
6.83,-0.0445455973766416,-0.08763971408477828,81.53348329814361
6.84,-0.14896624871702818,0.0750604186304973,81.38788426286568
6.85,-0.021353031293094595,-0.07606913571881228,81.230426482633
6.86,-0.11589069179850159,0.09068069942455138,81.05122766998325
6.87,0.02737660599908581,-0.055805789503543646,80.87137003816935
6.88,-0.04977564727106511,0.12195092916231587,80.60257181919472
6.89,0.11033601811752765,-0.025114088684077458,80.36671455842777
6.9,0.048837845221030546,0.15379968781837866,80.4003143357996
6.91,0.24198899821853317,0.024105371595762475,80.96162826365838
6.92,0.19675808395917402,0.20126872726849554,82.24039626128031
6.93,0.3701793245963342,0.061739419434808256,84.32753537331857
6.94,0.27679588199866206,0.22328249431348723,86.98652951984205
6.95,0.3910634548644115,0.060582361598211655,89.83658122397006
6.96,0.2396805624030635,0.20591179268971008,92.51797522207477
6.97,0.2808717139853507,0.01714819050135472,94.81857174329876
6.98,0.05753054883865858,0.13700751511289982,96.48999596275617
6.99,0.1016072451902829,-0.036106138131745145,97.46636596403164
7.0,-0.08746807582053108,0.08836658375135818,98.03822099851688
7.01,-0.01323743662933398,-0.07549060680051399,98.18447885295895
7.02,-0.17042748793897292,0.06983882429098444,97.87022211165772
7.03,-0.07239110440074469,-0.09517542409748432,97.2417086290553
7.04,-0.19188872716091765,0.061739419434808256,96.51239581433738
7.05,-0.07354532230847953,-0.09575395301578263,95.8278827027819
7.06,-0.19246583611478507,0.060003832679913355,95.08736996227339
7.07,-0.06892845067754015,-0.09517542409748432,94.24605788964938
7.08,-0.1826189145894222,0.06752470861779125,93.39354589123477
7.09,-0.05558280611935604,-0.08995382975797146,92.64183322493562
7.1,-0.17100459689284034,0.06578912186289634,92.00211981654259
7.11,-0.03873843852835067,-0.08532559841158507,91.56466389154467
7.12,-0.15535051651918652,0.07215293996417764,91.25040715024345
7.13,-0.03469867585127872,-0.07780472247370718,91.00334996368589
7.14,-0.15592762547305394,0.0756389475487956,90.92495048315163
7.15,-0.0317770617723249,-0.07838325139200548,90.91375055736101
7.16,-0.15361918965758425,0.0767960053853922,90.83535107682675
7.17,-0.0370071116667484,-0.07896178031030378,90.66669337080346
7.18,-0.16519743804454942,0.0733248318756024,90.48749455815371
7.19,-0.043391379468906754,-0.07780472247370718,90.22923744580554
7.2,-0.16696483421576838,0.0814242367317786,89.8813809271325
7.21,-0.04977564727106511,-0.07838325139200548,89.61192388899372
7.22,-0.17331303270831003,0.0750604186304973,89.48872470529702
7.23,-0.05092986517879995,-0.07954030922860209,89.49992463108762
7.24,-0.1808515184182032,0.07157441104587935,89.52232448266885
7.25,-0.05789124193482572,-0.07954030922860209,89.55592426004067
7.26,-0.18146469668168735,0.0750604186304973,89.61192388899372
7.27,-0.059045459842560565,-0.08416854057498847,89.73578189185457
7.28,-0.1808515184182032,0.074481889712199,89.98218025924798
7.29,-0.06369840078311666,-0.07954030922860209,90.20683759422433
7.3,-0.18377313249715704,0.074481889712199,90.36363655529286
7.31,-0.059045459842560565,-0.08127589598349698,90.39723633266468
7.32,-0.17623464678726386,0.07041735320928275,90.27403714896798
7.33,-0.04746721145559542,-0.08185442490179527,90.0500386331558
7.34,-0.14608070394769107,0.08663099699646329,89.78058159501701
7.35,-0.01962170443149233,-0.06043402084993004,89.4663248537158
7.36,-0.12285206855452735,0.12368651591721078,89.12966826083337
7.37,-0.010892931504247581,-0.025692617602375754,88.77061181636971
7.38,-0.1617347843213449,0.10053052511045063,88.38915552032483
7.39,-0.04746721145559542,-0.04827007949083759,87.94049966953631
7.4,-0.1727359237544426,0.08778805483305989,87.41278551904936
7.41,-0.0753127184796985,-0.09806806868897582,86.9193299650984
7.42,-0.2029259359036321,0.04436871781103111,86.41467448535683
7.43,-0.06950555963140757,-0.10443188679025711,85.9093601864511
7.44,-0.19188872716091765,0.046682833484224306,85.43830448408136
7.45,-0.060812856013779545,-0.10616747354515202,85.00084855908344
7.46,-0.17042748793897292,0.0542037094221022,84.61939226303856
7.47,-0.0753127184796985,-0.1443800503024961,84.23793596699369
7.48,-0.08342831314345912,0.020634198085972676,83.9684789288549
7.49,0.5378294756948201,0.12542210267210566,83.79982122283162
7.5,1.3800839245547052,0.6262649710953231,83.60942248439126
7.51,1.1242803807529707,0.3043358791745618,83.37356522362431
7.52,0.12076004859675796,0.13411487052140833,83.10476700464969
7.53,-0.016122981398671087,-0.07838325139200548,82.95850915020762
7.54,-0.0979281756093781,0.06463206402629976,82.8129101149297
7.55,0.008800911546478178,-0.09691101085237923,82.58825277995335
7.56,-0.11823519692358798,0.05768971700672016,82.3411955933958
7.57,0.011145416671564578,-0.09228277950599283,82.12839700337422
7.58,-0.10254504724031746,0.06521059294459805,81.99333907472274
7.59,0.02795371495295323,-0.08532559841158507,81.89253974260727
7.6,-0.0828512041895917,0.07215293996417764,81.8253401878636
7.61,0.04941495417489797,-0.07722619355540888,81.78054048470116
7.62,-0.06835134172367274,0.07911012105858539,81.58948292709665
7.63,0.0679906486275056,-0.07026901246100113,81.35428448549386
7.64,-0.0341215668974113,0.09358817809087104,81.06242759577387
7.65,0.11091312707139507,-0.05347683975552229,80.79297055763509
7.66,0.020992338196927456,0.11500858214273628,80.74817085447265
7.67,0.18687509312419442,-0.02164291517428766,80.78177063184448
7.68,0.12133715755062538,0.15206410106348375,80.63617159656656
7.69,0.3133340926403932,0.021791255922569277,80.87137003816935
7.7,0.26460445534821275,0.20011166943189893,82.18439663232726
7.71,0.44094731006432675,0.059425303761615055,84.30513552173734
7.72,0.3487180853743895,0.22270396539518894,87.02012929721388
7.73,0.4804071347850117,0.06405353510800145,90.01578003661982
7.74,0.32321708347537276,0.20301914809821858,92.74263255705111
7.75,0.3701793245963342,0.026419487268955672,94.96417077857669
7.76,0.15441271446915197,0.14859292755369397,96.68105352036068
7.77,0.186297984170327,-0.03147790678535875,97.76942277954225
7.78,-0.002777336840486966,0.10168758294704723,98.1172792982153
7.79,0.06333770768694952,-0.06795489678780793,98.04942092430748
7.8,-0.08746807582053108,0.0808457078134803,97.81422248270468
7.81,0.011722525625431999,-0.08821824300307657,97.38796648349738
7.82,-0.12054363273905767,0.06983882429098444,96.80425270405738
7.83,-0.005698950919440788,-0.08995382975797146,96.07493988933946
7.84,-0.12519657367961376,0.06636765078119465,95.22242789092485
7.85,0.001839534790452406,-0.09111088759456806,94.32445737018364
7.86,-0.11069671121369479,0.062317948353106556,93.57274470388451
7.87,0.0221465561046623,-0.08011883814690038,92.9666310728633
7.88,-0.093275234668822,0.0762174764670939,92.57397485102781
7.89,0.037223527524448685,-0.07896178031030378,92.19251855498294
7.9,-0.07992959011063788,0.0767960053853922,91.7326627784038
7.91,0.04245357741887219,-0.07606913571881228,91.38480625973077
7.92,-0.07704404534130077,0.08431688132327009,91.1832075954998
7.93,0.041299359511137355,-0.06969048354270282,91.27280700182467
7.94,-0.08689096686666366,0.0848954102415684,91.32880663077772
7.95,0.03260665589350931,-0.07258312813419433,91.07054951842954
7.96,-0.09735106665551067,0.08315982348667349,90.8801507799892
7.97,0.015762288302503952,-0.08127589598349698,90.73389292554711
7.98,-0.11185092912142963,0.07157441104587935,90.42029500341005
7.99,0.003029822007803963,-0.08301148273839187,90.15083796527128
8.0,-0.12692790054121603,0.06810323753608954,89.99338018503859
8.01,-0.008007386734910473,-0.08532559841158507,89.84778114976066
8.02,-0.13504349520497663,0.060582361598211655,89.30886707348311
8.03,-0.015545872444803667,-0.09053235867626977,88.98406922555544
8.04,-0.13850614892818117,0.06694617969949294,88.96166937397422
8.05,-0.017854308260273354,-0.08590412732988337,89.12966826083337
8.06,-0.14608070394769107,0.062317948353106556,89.64552366636555
8.07,-0.02600597223365068,-0.09343983734258943,89.99338018503859
8.08,-0.141427763007135,0.06405353510800145,89.90378077871371
8.09,-0.02250724920082944,-0.09053235867626977,89.7581817434358
8.1,-0.14085065405326758,0.06289647727140485,89.72458196606397
8.11,-0.013814545583201403,-0.08185442490179527,89.7693816692264
8.12,-0.14431330777647208,0.06578912186289634,89.71338204027336
8.13,-0.018467486523757487,-0.08937530083967317,89.38792537318153
8.14,-0.13619771311271148,0.06347500618970316,88.89381100006642
8.15,-0.0022002278866195446,-0.08243295382009358,88.43395522348727
8.16,-0.1008137203787152,0.0837383524049718,88.11969848218607
8.17,0.010568307717697156,-0.06390519435971984,87.77184196351301
8.18,-0.08458253105119397,0.12600063159040398,87.32318611272449
8.19,0.00591536677714107,-0.056962847340140246,86.8073307071923
8.2,-0.13039055426442056,0.09995199619215234,86.23481685354292
8.21,-0.0010460099788847015,-0.0424847903078546,85.73016137380135
8.22,-0.13850614892818117,0.07273146888247595,85.37110492933769
8.23,-0.03931554748221809,-0.1073245313817486,85.09044796540832
8.24,-0.16519743804454942,0.04494724672932941,84.72019159515405
8.25,-0.036430002712880986,-0.10501041570855542,84.27153574436552
8.26,-0.1495433576708956,0.046682833484224306,83.84527974515821
8.27,-0.015545872444803667,-0.10616747354515202,83.55342285543821
8.28,-0.14781203080929334,0.029312131860447167,83.38476514941492
8.29,-0.00046890102501728,-0.18317115597813846,83.23916611413699
8.3,0.09233743261878745,0.13700751511289982,83.09290825969492
8.31,1.0703206935663667,0.3315564064842382,82.96970907599822
8.32,1.675924402030992,0.5689461059593071,82.74571056018604
8.33,0.4977925420202678,0.05653265917012356,82.47625352204726
8.34,-0.009738713596512738,0.09879493835555574,82.32999566760517
8.35,0.034915091708979,-0.09168941651286637,82.19559655811787
8.36,-0.08458253105119397,0.0513110648306107,81.95973929735092
8.37,0.020992338196927456,-0.10674600246345031,81.71334092995751
8.38,-0.1008137203787152,0.05711118808842186,81.54468322393421
8.39,0.026222388091350964,-0.10038218436216902,81.43268396602812
8.4,-0.08400542209732655,0.05653265917012356,81.33188463391264
8.41,0.041299359511137355,-0.09228277950599283,81.18562677947057
8.42,-0.0677381634601886,0.06752470861779125,81.06242759577387
8.43,0.06449192559468435,-0.07838325139200548,80.88256996395997
8.44,-0.04804432040946284,0.0756389475487956,80.65857144814777
8.45,0.08945188784945034,-0.07433354896391739,80.50111366791509
8.46,-0.012083218721599138,0.09125922834284968,80.28831507789351
8.47,0.13583702001654435,-0.05174125300062739,80.08605759449839
8.48,0.048837845221030546,0.11732269781592948,79.94045855922047
8.49,0.22460359098327712,-0.019328799501094462,79.95165848501108
8.5,0.16483674494838227,0.15611380349157186,80.19871567156864
8.51,0.349908372591741,0.01599113266475812,80.87137003816935
8.52,0.30521849797663253,0.20359767701651688,82.25159618707092
8.53,0.4670614902268276,0.062317948353106556,84.41713477964345
8.54,0.36671667087312965,0.21690384213737776,87.22238678060901
8.55,0.47113732221351623,0.0530466515855056,90.17323781685249
8.56,0.30579560693049995,0.18449138863784484,92.8434318891666
8.57,0.3365627280335569,0.002106438625598936,94.93057100120485
8.58,0.12483588058344662,0.12195092916231587,96.34439692747824
8.59,0.15906565540970805,-0.05463389759211888,97.17450907431164
8.6,-0.024238576062431703,0.0750604186304973,97.51116566719408
8.61,0.05291367720771921,-0.08763971408477828,97.44396611245043
8.62,-0.09154390780721974,0.062317948353106556,97.02891003903372
8.63,0.001839534790452406,-0.10038218436216902,96.35559685326885
8.64,-0.11589069179850159,0.051889593748909,95.55908448380728
8.65,-0.006276059873308209,-0.10153924219876562,94.67231388885669
8.66,-0.1286592274028183,0.05073253591231241,93.81980189044206
8.67,-0.005121841965573366,-0.09922512652557242,92.95543114707269
8.68,-0.11415936493689932,0.05595413025182526,92.19251855498294
8.69,0.011722525625431999,-0.09575395301578263,91.5982636689165
8.7,-0.09619684874777583,0.06289647727140485,91.11534922159198
8.71,0.020992338196927456,-0.09228277950599283,90.74509285133773
8.72,-0.0979281756093781,0.05015400699401411,90.44269485499127
8.73,0.019838120289192615,-0.09343983734258943,90.25163729738676
8.74,-0.10254504724031746,0.058846774843316754,90.22923744580554
8.75,0.012876743533166844,-0.09111088759456806,90.28523707475858
8.76,-0.10777509713474097,0.06405353510800145,90.19563766843372
8.77,-0.00046890102501728,-0.09053235867626977,89.99338018503859
8.78,-0.12169785064679252,0.062317948353106556,89.81418137238884
8.79,-0.007430277781043052,-0.09343983734258943,89.53352440845946
8.8,-0.12981344531055314,0.058846774843316754,89.25286744453007
8.81,-0.01266032767546656,-0.08821824300307657,89.14086818662398
8.82,-0.13273505938950694,0.060582361598211655,89.09606848346154
8.83,-0.02250724920082944,-0.09343983734258943,89.09606848346154
8.84,-0.14546752568420693,0.05479707241522866,89.16326803820519
8.85,-0.027160190141385526,-0.09459689517918603,89.25286744453007
8.86,-0.1448904167303395,0.05073253591231241,89.30886707348311
8.87,-0.032354170726192316,-0.08590412732988337,89.39912529897214
8.88,-0.1495433576708956,0.05595413025182526,89.60072396320311
8.89,-0.030045734910722634,-0.09459689517918603,89.71338204027336
8.9,-0.1576589523346562,0.04899694915741751,89.7581817434358
8.91,-0.035852893759013564,-0.09806806868897582,89.7693816692264
8.92,-0.14781203080929334,0.059425303761615055,89.60072396320311
8.93,-0.03873843852835067,-0.09401836626088772,89.34312567001909
8.94,-0.16115767536747747,0.05073253591231241,89.2864672219019
8.95,-0.038161329574483246,-0.10153924219876562,89.18566788978642
8.96,-0.1448904167303395,0.061160890516509955,88.83781137111336
8.97,-0.008007386734910473,-0.08648265624818167,88.41155537190606
8.98,-0.12169785064679252,0.09010217050625309,87.95169959532693
8.99,0.004184039915538806,-0.026849675438972355,87.46878514800241
9.0,-0.14085065405326758,0.0848954102415684,87.03132922300449
9.01,-0.046890102501727995,-0.05174125300062739,86.52667374326292
9.02,-0.16058056641361004,0.0767960053853922,85.96535981540414
9.03,-0.07469954021621437,-0.12295964625063086,85.42710455829075
9.04,-0.19654166810147375,0.029312131860447167,84.87699055622258
9.05,-0.07704404534130077,-0.11948847274084105,84.39473492806222
9.06,-0.18958029134544796,0.028733602942148866,84.10287803834223
9.07,-0.07181399544687726,-0.12469523300552575,83.92367922569248
9.08,-0.17623464678726386,0.02699801618725397,83.76622144545979
9.09,-0.08342831314345912,-0.1409088767927063,83.56462278122882
9.1,-0.13039055426442056,-0.026271146520674055,83.17196655939334
9.11,0.3272568461524447,0.046682833484224306,82.947309224417
9.12,1.0796265754474788,0.5179910589245722,82.85770981809213
9.13,1.3760441618776331,0.359919157555683,82.655452334697
9.14,0.18168111253938762,0.10747287213003022,82.32999566760517
9.15,0.000685316882717563,-0.08127589598349698,82.04999752283994
9.16,-0.13039055426442056,0.0542037094221022,81.8253401878636
9.17,-0.014391654537068824,-0.10616747354515202,81.6342826302591
9.18,-0.14431330777647208,0.03684784187315322,81.57828300130605
9.19,-0.02600597223365068,-0.10558894462685371,81.57828300130605
9.2,-0.1315808414817721,0.04899694915741751,81.45508381760935
9.21,-0.01670009035253851,-0.09864659760727412,81.20802663105178
9.22,-0.12054363273905767,0.04957547807571581,81.08482744735508
9.23,0.006492475731008492,-0.08706118516647997,80.9952280410302
9.24,-0.10312215619418488,0.05768971700672016,80.84897018658813
9.25,0.03606930961671385,-0.07375502004561908,80.63617159656656
9.26,-0.07354532230847953,0.07911012105858539,80.43391411317144
9.27,0.06856775758137303,-0.055805789503543646,80.25471530052168
9.28,-0.009161604642645317,0.10226611186534554,80.04125789133596
9.29,0.1427983967725701,-0.024535559765779157,79.73820107582534
9.3,0.07203041130457755,0.14801439863539567,79.5702021889662
9.31,0.25648886068445215,0.02468390051406077,79.71580122424413
9.32,0.20141102489973012,0.18564844647444145,80.41151426159021
9.33,0.37425515658302283,0.06289647727140485,81.84774003944483
9.34,0.2965257943590045,0.21690384213737776,84.03567848359857
9.35,0.41717763502691235,0.061739419434808256,86.6274730753784
9.36,0.2854885856162901,0.20764737944460498,89.2864672219019
9.37,0.33771694594129176,0.032204776451938665,91.8558619621005
9.38,0.13875863409549816,0.1456854488873743,93.94300107413878
9.39,0.16195120017904516,-0.036106138131745145,95.34562707462155
9.4,-0.024815685016299126,0.08720952591476158,96.2883972985252
9.41,0.03260665589350931,-0.07316165705249263,96.7034533719419
9.42,-0.1135822559830319,0.074481889712199,96.60199522066226
9.43,-0.03527578480514614,-0.08648265624818167,96.26533862777983
9.44,-0.15939027919625848,0.05537560133352696,95.76068314803825
9.45,-0.05846835088869314,-0.09168941651286637,95.09856988806399
9.46,-0.17854308260273352,0.0513110648306107,94.32445737018364
9.47,-0.045699815284376444,-0.09806806868897582,93.46074544597842
9.48,-0.1547734075653191,0.0513110648306107,92.52917514786537
9.49,-0.027160190141385526,-0.09401836626088772,91.60946359470711
9.5,-0.14258198091486982,0.0524681226672073,90.77869262870955
9.51,-0.02366146710856428,-0.08763971408477828,90.02697996241042
9.52,-0.1263507915873486,0.06289647727140485,89.39912529897214
9.53,-0.01962170443149233,-0.08416854057498847,88.92741077743824
9.54,-0.1263507915873486,0.06810323753608954,88.5683543329746
9.55,-0.017854308260273354,-0.07954030922860209,88.31075603979058
9.56,-0.14085065405326758,0.06694617969949294,88.19809796272033
9.57,-0.02946862595685521,-0.07896178031030378,88.18689803692972
9.58,-0.14027354509940015,0.06578912186289634,88.06369885323302
9.59,-0.0445455973766416,-0.08127589598349698,87.81664166667545
9.6,-0.16404322013681458,0.05768971700672016,87.60384307665387
9.61,-0.05846835088869314,-0.09459689517918603,87.55904337349143
9.62,-0.16288900222907973,0.060582361598211655,87.65984270560692
9.63,-0.05846835088869314,-0.09517542409748432,87.73824218614119
9.64,-0.17158170584670776,0.061160890516509955,87.78304188930363
9.65,-0.05789124193482572,-0.09053235867626977,88.00769922427997
9.66,-0.1808515184182032,0.04899694915741751,88.33315589137179
9.67,-0.06835134172367274,-0.09111088759456806,88.54595448139337
9.68,-0.1779659736488661,0.05537560133352696,88.77061181636971
9.69,-0.07239110440074469,-0.09633248193408092,89.08486855767093
9.7,-0.1826189145894222,0.0524681226672073,89.33192574422849
9.71,-0.0753127184796985,-0.09517542409748432,89.39912529897214
9.72,-0.17623464678726386,0.05479707241522866,89.42152515055336
9.73,-0.027737299095252948,-0.09111088759456806,89.34312567001909
9.74,-0.15881317024239106,0.07215293996417764,89.07366863188032
9.75,-0.018467486523757487,-0.0378565589614682,88.7594118905791
9.76,-0.15650473442692137,0.08431688132327009,88.41155537190606
9.77,-0.06369840078311666,-0.06216960760482494,88.01889915007058
9.78,-0.16811905212350323,0.08720952591476158,87.54784344770083
9.79,-0.08108380801837273,-0.10211777111706392,86.99772944563267
9.8,-0.20988731265965788,0.03451889212513186,86.30201640828658
9.81,-0.10312215619418488,-0.11138906788466486,85.65110307410293
9.82,-0.20988731265965788,0.031047718615342064,85.31510530038464
9.83,-0.08227409523572428,-0.11601729923105127,84.956048855921
9.84,-0.19131161820705023,0.02468390051406077,84.4843343343871
9.85,-0.08862229372826591,-0.13049535626333691,83.99087878043613
9.86,-0.17623464678726386,-0.029742320030463853,83.56462278122882
9.87,0.13818152514163073,-0.0430633192261529,83.27276589150883
9.88,0.834824171078842,0.4236166748678086,83.04810855653248
9.89,1.7188468804748815,0.34659815835999397,82.77931033755786
9.9,0.3034871711150303,0.18796256214763465,82.5210532252097
9.91,0.05579922197705632,-0.07838325139200548,82.32999566760517
9.92,-0.16346611118294715,0.04379018889273281,82.10599715179299
9.93,-0.023084358154696862,-0.1084815892183452,81.87013989102604
9.94,-0.1391193271916653,0.04205460213783792,81.6909410783763
9.95,-0.030622843864590056,-0.11021717597324011,81.522283372353
9.96,-0.13619771311271148,0.04205460213783792,81.36548441128447
9.97,-0.014968763490936246,-0.10096071328046732,81.29828485654082
9.98,-0.11881230587745541,0.04841842023911921,81.17442685367996
9.99,-0.005698950919440788,-0.10096071328046732,80.90562863470534
