time_s,ECG,NIBP
0.0,0.6396357143553647,113.12765174203517
0.01,0.5404568360020962,118.10160340167235
0.02,0.38038326784095544,121.6725069311335
0.03,0.21728033154950235,122.83215812276704
0.04,0.0851296348503708,123.16750501587002
0.05,-0.012644319152607936,122.67962937461375
0.06,-0.07384633616210608,122.46544006869635
0.07,-0.10602788456093114,121.3371600380305
0.08,-0.1267944226136518,120.39061638814304
0.09,-0.13886799124895452,117.00361276780289
0.1,-0.13228240835697122,112.76093368796448
0.11,-0.12556511380714827,109.49616941898122
0.12,-0.1213064368703324,108.09203952463389
0.13,-0.11445743066266977,106.99296712659313
0.14,-0.11138415864641088,106.47480208854046
0.15,-0.10651082730634324,105.89497649272369
0.16,-0.10115455322086349,105.4373902482638
0.17,-0.09614951022295619,105.4060190872961
0.18,-0.09720320348567352,105.5899189964171
0.19,-0.10514980684200002,105.4060190872961
0.2,-0.1168721443897303,105.5899189964171
0.21,-0.12284307287846183,105.4373902482638
0.22,-0.12604805655256038,105.6504977900099
0.23,-0.13763868244245098,105.07067219419312
0.24,-0.14251201378251863,104.88785404924343
0.25,-0.14145832051980128,103.97268156032366
0.26,-0.13961435731004596,103.66654229984577
0.27,-0.1428193409841445,103.1180878649967
0.28,-0.14633165185986893,103.42314536130328
0.29,-0.14633165185986893,103.086716704029
0.3,-0.1510732715420969,103.30090600994639
0.31,-0.15686858448704222,103.27061661315
0.32,-0.15761495054813365,103.3311954067428
0.33,-0.1548929096194472,103.42314536130328
0.34,-0.16007356816114077,104.06354975071287
0.35,-0.1624882818882013,103.94131039935597
0.36,-0.16371759069470485,104.55250715614044
0.37,-0.16999584638506227,104.33831785022305
0.38,-0.17381548446241257,104.55250715614044
0.39,-0.1670981899125896,103.97268156032366
0.4,-0.1629712246336134,104.12521030847695
0.41,-0.16341026349307897,103.1483772617931
0.42,-0.16538593836067395,102.17154421510924
0.43,-0.16889824923639837,99.88253122863854
0.44,-0.1713568668494055,98.14305444118821
0.45,-0.1663079199655516,96.67834575324808
0.46,-0.1663079199655516,95.70151270656423
0.47,-0.16538593836067395,94.69439026308397
0.48,-0.16586888110608605,94.05398587367439
0.49,-0.17043488524452782,93.13881338475464
0.5,-0.1728935028575349,92.86404528524444
0.51,-0.16968851918343636,91.91750163535698
0.52,-0.16968851918343636,91.73468349040729
0.53,-0.17197152125265724,91.06290794003003
0.54,-0.16968851918343636,90.88008979508034
0.55,-0.1621809546865754,90.69727165013065
0.56,-0.15959062541572863,90.51445350518095
0.57,-0.16279560908982718,90.63561109236655
0.58,-0.16845921037693282,91.00232914643723
0.59,-0.1670981899125896,90.69727165013065
0.6,-0.15928329821410275,90.45279294741685
0.61,-0.16266389743198753,90.26997480246716
0.62,-0.16815188317530694,90.63561109236655
0.63,-0.16802017151746726,90.23968540567077
0.64,-0.18373776268633407,90.42250355062045
0.65,-0.19989439271466644,90.39221415382406
0.66,-0.19774310230328523,90.51445350518095
0.67,-0.19330880982268314,90.26997480246716
0.68,-0.1674055171142155,90.54474290197734
0.69,-0.1449706313955257,89.90325674839647
0.7,-0.13763868244245098,89.81238855800729
0.71,-0.13474102596997833,89.475959900733
0.72,-0.15533194847891277,89.29314175578331
0.73,-0.1621809546865754,88.56078741181324
0.74,-0.14238030212467895,88.40825866365994
0.75,-0.13381904436510067,88.22544051871024
0.76,-0.1383850485035424,87.95067241920006
0.77,-0.15427825521619545,86.97383937251621
0.78,-0.12117472521249273,87.1566575174659
0.79,0.27909700296225226,86.30206382213893
0.8,1.2646514346905264,86.05866688359644
0.81,1.5878279391431203,85.44747012681198
0.82,0.4592785508869154,84.8676445309952
0.83,-0.3575093432628001,84.31919009614612
0.84,-0.20402135799364265,84.07471139343234
0.85,-0.07766597423945638,83.52517519441196
0.86,-0.08284663278114991,83.25040709490177
0.87,-0.06409967348197079,82.6402921022886
0.88,-0.05738237893214782,81.93822715511493
0.89,-0.04271848102599834,81.75540901016524
0.9,-0.021820231315438,81.51093030745145
0.91,-0.005663601287105639,80.87052591804188
0.92,0.00197567486759499,80.68770777309219
0.93,0.013258973555859711,80.53517902493888
0.94,0.033279145547488946,80.35127911581789
0.95,0.05369445251263717,79.74116412320473
0.96,0.07217798849613698,80.01593222271491
0.97,0.08789557966500378,79.34415667233763
0.98,0.10984752263828144,79.13104913059155
0.99,0.13777039410029066,78.97852038243825
1.0,0.16433224509795663,78.73404167972447
1.01,0.19330880982268314,78.58151293157117
1.02,0.23071492064914828,78.91685982467416
1.03,0.27558469208652786,78.18450548070409
1.04,0.3259424492672268,78.45927358021427
1.05,0.38771521679403015,78.1239266871113
1.06,0.45866389648366357,78.79570223748856
1.07,0.5329931753911817,78.55122353477478
1.08,0.5935805379974282,78.82599163428496
1.09,0.6326110926039158,78.61180232836757
1.1,0.6562752871291092,80.35127911581789
1.11,0.6289670700703517,85.14241263050539
1.12,0.5210952222996653,92.89433468204085
1.13,0.3575093432628001,101.37861107754638
1.14,0.19361613702430902,121.97756442744007
1.15,0.06502165508684846,121.76337512152269
1.16,-0.02059092250893445,122.00785382423648
1.17,-0.07292435455722841,121.76337512152269
1.18,-0.10133016876464972,121.58055697657299
1.19,-0.11643310553026474,120.94015258716342
1.2,-0.11915514645895119,120.02389833407236
1.21,-0.11415010346104387,117.33895966090589
1.22,-0.10848650217393824,113.28018049018846
1.23,-0.10176920762411527,108.64157572365426
1.24,-0.09843251229217706,104.94843284283623
1.25,-0.09873983949380295,104.33831785022305
1.26,-0.09325185375048353,104.12521030847695
1.27,-0.09307623820669732,103.91102100255956
1.28,-0.09887155115164262,103.72820285760987
1.29,-0.10576446124525181,103.57567410945659
1.3,-0.10787184777068647,103.75849225440628
1.31,-0.11674043273189064,103.1483772617931
1.32,-0.1271017498152777,102.93418795587571
1.33,-0.13215069669913157,102.41602291782303
1.34,-0.1353556803732301,102.11096542151644
1.35,-0.14189735937926684,101.0421824202721
1.36,-0.14984396273559336,100.7987854817296
1.37,-0.15533194847891277,100.64625673357631
1.38,-0.15243429200644013,101.25637172618949
1.39,-0.15243429200644013,101.19471116842539
1.4,-0.152741619208066,101.68366857385297
1.41,-0.15287333086590568,102.32407296326254
1.42,-0.15230258034860045,103.36148480353918
1.43,-0.1550246212772869,103.086716704029
1.44,-0.1591515865562631,104.52113599517274
1.45,-0.1616102041692702,105.01009340060031
1.46,-0.1629712246336134,106.07779463767338
1.47,-0.16569326556229982,106.29198394359076
1.48,-0.1669225743688034,106.35256273718356
1.49,-0.16771284431584138,106.16974459223387
1.5,-0.16389320623849107,106.44451269174405
1.51,-0.16586888110608605,105.80302653816318
1.52,-0.1670981899125896,106.10808403446977
1.53,-0.16038089536276665,99.08959809107567
1.54,-0.16310293629145306,97.74604699032113
1.55,-0.16815188317530694,96.77029570780857
1.56,-0.16358587903686517,95.73288386753192
1.57,-0.1624882818882013,95.15305827171515
1.58,-0.16191753137089607,95.30558701986844
1.59,-0.1621809546865754,94.23680401862408
1.6,-0.1652542267028343,93.65697842280731
1.61,-0.16112726142385808,93.10744222378693
1.62,-0.15761495054813365,92.83375588844805
1.63,-0.15840522049517164,92.28421968942767
1.64,-0.15656125728541634,92.16198033807078
1.65,-0.1550246212772869,91.8872122385606
1.66,-0.1533562736113178,92.16198033807078
1.67,-0.1530489464096919,91.94779103215339
1.68,-0.152741619208066,92.16198033807078
1.69,-0.14997567439343304,91.8266334449678
1.7,-0.14848294227125014,92.03974098671388
1.71,-0.14694630626312072,91.49020478769351
1.72,-0.14817561506962426,91.79526228400009
1.73,-0.15945891375788898,91.5204941844899
1.74,-0.17640581373325934,91.30738664274382
1.75,-0.1823328383360443,91.5518653454576
1.76,-0.1843085132036393,91.73468349040729
1.77,-0.177327795338137,91.45991539089711
1.78,-0.13992168451167186,91.33767603954021
1.79,-0.12056007080924096,91.09427910099772
1.8,-0.1196380892043633,91.30738664274382
1.81,-0.1188478192573253,90.78813984051983
1.82,-0.13351171716347476,90.88008979508034
1.83,-0.13579471923269565,90.30026419926357
1.84,-0.12437970888659126,90.11744605431387
1.85,-0.1193307620027374,89.08003421403721
1.86,-0.12086739801086684,88.77389495355932
1.87,-0.14189735937926684,88.19406935774255
1.88,-0.06743636881390899,88.07291177055696
1.89,0.48140610940397927,87.40113622017968
1.9,1.5647783990211788,87.24860747202639
1.91,1.6661085677858285,86.60820308261682
1.92,0.36299732900611953,86.51625312805632
1.93,-0.30684425888047523,85.81418818088265
1.94,-0.10589617290309147,85.72223822632216
1.95,-0.05127973878557663,84.59395819565631
1.96,-0.0790269947037996,84.5625870346886
1.97,-0.065460693946314,83.92218264527904
1.98,-0.052640759249919844,83.64741454576885
1.99,-0.039074458492434246,83.43430700402276
2.0,-0.025639869392788315,83.25040709490177
2.01,-0.012073568635302716,82.67058149908499
2.02,0.0021512904113812114,82.33523460598201
2.03,0.016771284431584137,82.27465581238921
2.04,0.03525482041508393,81.96851655191132
2.05,0.05048946883853864,81.29782276570535
2.06,0.06774369601553488,81.63316965880834
2.07,0.08741263691959167,81.32811216250175
2.08,0.10497419129821381,81.20587281114486
2.09,0.12894571302503302,80.80886536027778
2.1,0.15792227774975953,80.74828656668498
2.11,0.19071848055183638,80.53517902493888
2.12,0.23084663230698796,80.65633661212448
2.13,0.27558469208652786,80.22903976446099
2.14,0.3268644308721045,81.11500462075566
2.15,0.3959691473519826,81.75540901016524
2.16,0.47086917677680595,84.8990156919629
2.17,0.5447594168248586,90.72756104692704
2.18,0.6103518224290123,99.30270563282177
2.19,0.6562752871291092,107.35968518066382
2.2,0.6674268741595342,114.34788172726151
2.21,0.621635121117277,119.26125459330589
2.22,0.4950163140474114,122.70991877141014
2.23,0.31755680705143474,122.61796881684965
2.24,0.15686858448704222,124.02209871119699
2.25,0.036001186476175374,124.17462745935028
2.26,-0.05325541365317162,124.47968495565686
2.27,-0.11125244698857122,123.41198371858381
2.28,-0.14268762932630483,122.92410807732753
2.29,-0.1544099668740351,121.79474628249038
2.3,-0.15897597101247687,119.0784364483562
2.31,-0.16068822256439252,115.81259041520164
2.32,-0.1510732715420969,113.31046988698486
2.33,-0.13689231638135954,111.47904314497404
2.34,-0.12648709541202593,110.93058871012497
2.35,-0.11779412599460796,110.62553121381838
2.36,-0.11015484983990734,110.0143344570339
2.37,-0.10238386202736705,110.2891025565441
2.38,-0.09856422395001672,110.35076311430818
2.39,-0.1016374959662756,109.8315163120842
2.4,-0.1069498661658088,110.53358125925787
2.41,-0.11415010346104387,109.8315163120842
2.42,-0.12038445526545473,110.1062844115944
2.43,-0.12771640421852948,109.46479825801353
2.44,-0.1353556803732301,109.15974076170694
2.45,-0.14053633891492362,107.87893198288779
2.46,-0.1449706313955257,107.26773522610333
2.47,-0.15089765599831068,106.71928079125425
2.48,-0.15607831454000423,106.47480208854046
2.49,-0.15871254769679755,106.23032338582667
2.5,-0.1616102041692702,106.87180953940754
2.51,-0.1624882818882013,106.56567027892964
2.52,-0.16279560908982718,106.84043837843984
2.53,-0.16556155390446017,106.56567027892964
2.54,-0.16845921037693282,106.87180953940754
2.55,-0.1663079199655516,106.99296712659313
2.56,-0.16556155390446017,107.23744582930692
2.57,-0.1624882818882013,107.14549587474643
2.58,-0.1624882818882013,107.26773522610333
2.59,-0.16538593836067395,107.05462768435723
2.6,-0.16889824923639837,107.29910638707102
2.61,-0.16815188317530694,106.84043837843984
2.62,-0.16753722877205515,105.28486150011051
2.63,-0.1713568668494055,104.30802845342664
2.64,-0.17333254171700047,102.96555911684341
2.65,-0.17179590570887102,102.69079101733323
2.66,-0.1712251551915658,102.93418795587571
2.67,-0.1707422124461537,102.69079101733323
2.68,-0.16982023084127604,101.71395797064936
2.69,-0.16999584638506227,100.64625673357631
2.7,-0.17030317358668814,99.30270563282177
2.71,-0.16771284431584138,98.32695435030921
2.72,-0.16920557643802425,95.27421585890075
2.73,-0.16920557643802425,94.69439026308397
2.74,-0.1682835948331466,94.78634021764447
2.75,-0.1707422124461537,94.23680401862408
2.76,-0.16968851918343636,93.9014571255211
2.77,-0.16815188317530694,93.839796567757
2.78,-0.16586888110608605,94.023696476878
2.79,-0.1652542267028343,93.41358148426482
2.8,-0.16815188317530694,93.68726781960372
2.81,-0.16968851918343636,93.41358148426482
2.82,-0.1666152471671775,93.62668902601091
2.83,-0.16371759069470485,93.41358148426482
2.84,-0.16722990157042927,93.56611023241811
2.85,-0.16999584638506227,93.41358148426482
2.86,-0.1649468995012084,93.62668902601091
2.87,-0.16341026349307897,93.35192092650072
2.88,-0.18492316760689106,94.0842752704708
2.89,-0.1965137934967817,93.47416027785762
2.9,-0.1969967362421938,93.62668902601091
2.91,-0.19712844790003345,93.41358148426482
2.92,-0.16420053344011695,93.25997097194023
2.93,-0.1345654104261921,93.01657403339775
2.94,-0.1351800648294439,93.25997097194023
2.95,-0.13395075602294032,92.64985597932706
2.96,-0.15028300159505892,92.49732723117377
2.97,-0.16266389743198753,91.85692284176419
2.98,-0.14861465392908982,92.22255913166357
2.99,-0.13763868244245098,91.91750163535698
3.0,-0.14053633891492362,91.73468349040729
3.01,-0.15287333086590568,91.15485789459052
3.02,-0.14145832051980128,90.94066858867313
3.03,0.18632809195718084,90.72756104692704
3.04,1.1792144726385299,90.45279294741685
3.05,1.8498024265862159,90.33055359605996
3.06,0.8561696798437756,90.08715665751747
3.07,-0.2583304649095316,89.475959900733
3.08,-0.20538237845798585,89.3850917103438
3.09,-0.04961139111960753,89.01837365627311
3.1,-0.09017858173422466,88.83555551132342
3.11,-0.08714921360391234,88.25572991550665
3.12,-0.07020231362854198,88.04154060958926
3.13,-0.055231088520766615,87.46171501377249
3.14,-0.041357460561655124,87.1880286784336
3.15,-0.030381489075016293,86.91326057892341
3.16,-0.017868881580248023,86.82131062436291
3.17,-0.005487985743319417,86.21119563174973
3.18,0.009439335478509397,86.45459257029223
3.19,0.02379590618303299,86.24148502854614
3.2,0.038898842948648024,86.45459257029223
3.21,0.059972708202994586,85.90613813544316
3.22,0.0810026695713946,86.05866688359644
3.23,0.10269118922899292,85.87476697447545
3.24,0.12863838582340714,85.69194882952576
3.25,0.15748323889029398,85.05154444011619
3.26,0.19286977096321758,85.32631253962637
3.27,0.2381785812600627,84.92930508875929
3.28,0.2917413221148602,85.26465198186229
3.29,0.3564556500000828,85.87476697447545
3.3,0.4389949555796068,87.92038302240367
3.31,0.5218415883607567,87.82843306784316
3.32,0.5912975359282072,87.95067241920006
3.33,0.6431480252310892,92.61956658253065
3.34,0.6719928782979759,100.37148863406613
3.35,0.6584265775404904,108.24456827278718
3.36,0.5628917217207859,115.26413598035258
3.37,0.3936861452827617,125.18174990283053
3.38,0.22123168128469234,125.48680739913712
3.39,0.08043191905408938,124.81611361293115
3.4,-0.02410323338465888,124.81611361293115
3.41,-0.09399821981157497,124.54134551342096
3.42,-0.13961435731004596,123.96151991760419
3.43,-0.16341026349307897,122.61796881684965
3.44,-0.1730252145153746,121.58055697657299
3.45,-0.17412281166403845,118.52890024933583
3.46,-0.16722990157042927,118.77337895204961
3.47,-0.15945891375788898,118.62085020389632
3.48,-0.15212696480481425,116.05706911791543
3.49,-0.14387303424686185,113.79834552824113
3.5,-0.13627766197810776,113.24989109339207
3.51,-0.13184336949750566,112.91346243611777
3.52,-0.1295603674282848,112.79122308476087
3.53,-0.1292530402266589,112.54782614621838
3.54,-0.13197508115534534,112.70035489437169
3.55,-0.1417656477214272,112.51753674942199
3.56,-0.15089765599831068,112.85288364252497
3.57,-0.15427825521619545,112.2113974889441
3.58,-0.16007356816114077,112.333636840301
3.59,-0.16556155390446017,111.41846435138123
3.6,-0.16802017151746726,111.29622500002435
3.61,-0.17030317358668814,109.46479825801353
3.62,-0.17091782798993993,109.22140131947103
3.63,-0.17500088938296957,108.61128632685786
3.64,-0.17640581373325934,108.94663321996084
3.65,-0.17974250906519754,108.73244391404346
3.66,-0.18707445801827227,108.91634382316445
3.67,-0.1905867688939967,108.67186512045066
3.68,-0.1905867688939967,108.88497266219674
3.69,-0.18663541915880674,109.06887257131774
3.7,-0.18782082407936374,109.64869816713451
3.71,-0.18935746008749316,109.49616941898122
3.72,-0.1892257484296535,109.67898756393092
3.73,-0.19361613702430902,109.46479825801353
3.74,-0.19682112069840757,109.77093751849141
3.75,-0.19379175256809525,109.892095105677
3.76,-0.19212340490212615,108.88497266219674
3.77,-0.1953283885762247,107.42026397425661
3.78,-0.199148026653575,106.16974459223387
3.79,-0.19897241110978878,104.30802845342664
3.8,-0.19822604504869734,103.23924545218229
3.81,-0.1950210613745988,101.89677611559905
3.82,-0.19563571577785058,100.9199430689152
3.83,-0.2014310287227959,99.85224183184215
3.84,-0.2052506668001462,99.57747373233195
3.85,-0.2024847219855132,98.69259064020859
3.86,-0.19853337225032322,98.41782254069841
3.87,-0.20112370152116998,98.02081508983132
3.88,-0.20020171991629232,97.71575759352474
3.89,-0.1980504295049111,97.13593199770796
3.9,-0.20112370152116998,97.41070009721815
3.91,-0.20094808597738378,96.70863515004449
3.92,-0.19884069945194913,96.55610640189118
3.93,-0.19730406344381968,96.43386705053429
3.94,-0.19682112069840757,96.55610640189118
3.95,-0.19712844790003345,96.37328825694149
3.96,-0.19774310230328523,96.16018071519541
3.97,-0.19546010023406435,95.88541261568521
3.98,-0.19453811862918668,96.0682307606349
3.99,-0.19884069945194913,95.94599140927801
4.0,-0.20125541317900966,96.1288095542277
4.01,-0.20494333959852032,95.51869456161454
4.02,-0.22307564449444767,95.73288386753192
4.03,-0.22887095743939295,95.12168711074744
4.04,-0.23163690225402594,94.93886896579775
4.05,-0.23225155665727773,94.23680401862408
4.06,-0.196382081838942,94.11456466726719
4.07,-0.17363986891862634,93.839796567757
4.08,-0.17258617565590903,93.59639962921452
4.09,-0.17991812460898376,93.04686343019414
4.1,-0.1997187771708802,92.46703783437736
4.11,-0.19620646629515578,91.85692284176419
4.12,-0.18189379947657874,91.7649728872037
4.13,-0.17776683419760256,91.06290794003003
4.14,-0.18202551113441842,90.88008979508034
4.15,-0.19958706551304056,89.87296735160008
4.16,-0.12407238168496537,89.62848864888629
4.17,0.4097110636532544,89.01837365627311
4.18,1.4045731192021982,88.92750546588393
4.19,1.3502640122863094,87.76785427425037
4.2,0.09614951022295619,87.55366496833298
4.21,-0.43276060377519593,86.97383937251621
4.22,-0.20050904711791823,86.82131062436291
4.23,-0.111076831444785,86.21119563174973
4.24,-0.11366716071563177,86.08895628039285
4.25,-0.09215425660181965,85.50913068457606
4.26,-0.07889528304595994,85.69194882952576
4.27,-0.06805102321716076,85.02125504331978
4.28,-0.05066508438232486,84.9595944855557
4.29,-0.029766834671764518,84.65453698924911
4.3,-0.0176932660364618,84.44142944750301
4.31,-0.009175912162830065,84.34947949294252
4.32,0.005795312944945305,84.04442199663593
4.33,0.03156689399557329,83.46459640081916
4.34,0.043772174288715666,83.64741454576885
4.35,0.059797092659208365,83.03729955315568
4.36,0.08833461852446933,83.22011769810537
4.37,0.11230614025128854,82.5180527509317
4.38,0.13917531845058043,82.79282085044188
4.39,0.1730252145153746,82.15241646103232
4.4,0.21315336627052617,82.4271845605425
4.41,0.26276475739013366,81.72511961336883
4.42,0.31966419357686937,81.96851655191132
4.43,0.3886371983989078,82.15241646103232
4.44,0.4684544630497454,83.28177825586947
4.45,0.5421251836680653,86.27177442534254
4.46,0.6043808939402807,86.48596373125993
4.47,0.6439382951781271,86.24148502854614
4.48,0.6474506060538515,92.86404528524444
4.49,0.5995075626002131,100.7068355271691
4.5,0.48004508893963604,108.42738641773687
4.51,0.30592227727559757,114.5923604299753
4.52,0.14220468658089272,114.86712852948548
4.53,0.02335686732356744,123.44227311538022
4.54,-0.05571403126617872,123.22916557363412
4.55,-0.10545713404362592,122.95439747412394
4.56,-0.13245802390075745,123.25945497043053
4.57,-0.14589261300040338,122.58767942005325
4.58,-0.14786828786799838,121.64221753433709
4.59,-0.14053633891492362,120.20779824319335
4.6,-0.1345654104261921,117.33895966090589
4.61,-0.12784811587636913,105.80302653816318
4.62,-0.12038445526545473,105.98584468311287
4.63,-0.11656481718810442,105.4060190872961
4.64,-0.12161376407195829,105.6504977900099
4.65,-0.12525778660552236,105.49796904185659
4.66,-0.12617976821040003,105.3454402937033
4.67,-0.1284627702796209,105.13233275195721
4.68,-0.1373313552408251,104.94843284283623
4.69,-0.1449706313955257,104.67366474332603
4.7,-0.1505903287966848,104.55250715614044
4.71,-0.15520023682107312,103.88073160576317
4.72,-0.15822960495138544,103.42314536130328
4.73,-0.16569326556229982,102.26349416966974
4.74,-0.17030317358668814,102.56855166597633
4.75,-0.17271788731374868,101.83619732200626
4.76,-0.1751765049267558,102.07959426054875
4.77,-0.17882052746031987,102.32407296326254
4.78,-0.18417680154579963,103.3311954067428
4.79,-0.18751349687773783,103.91102100255956
4.8,-0.18953307563127939,104.18578910206975
4.81,-0.19102580775346226,103.91102100255956
4.82,-0.1930453865070038,104.12521030847695
4.83,-0.2008163743195441,105.04038279739672
4.84,-0.20050904711791823,106.84043837843984
4.85,-0.19774310230328523,107.81727142512369
4.86,-0.19712844790003345,108.79410447180756
4.87,-0.19576742743569023,108.73244391404346
4.88,-0.19730406344381968,104.12521030847695
4.89,-0.19884069945194913,104.03326035391646
4.9,-0.1965137934967817,102.14125481831285
4.91,-0.19194778935833992,100.27953867950562
4.92,-0.18966478728911906,99.33299502961816
4.93,-0.18615247641339464,97.89965750264572
4.94,-0.18386947434417375,97.35012130362536
4.95,-0.18571343755392908,97.13593199770796
4.96,-0.18479145594905141,96.58639579868759
4.97,-0.18141085673116664,95.39645521025764
4.98,-0.17882052746031987,94.84691901123726
4.99,-0.17930347020573198,94.2065146218277
5.0,-0.1840011860020134,94.023696476878
5.01,-0.18189379947657874,93.50444967465403
5.02,-0.18158647227495286,93.22968157514383
5.03,-0.18250845387983053,92.61956658253065
5.04,-0.1778985458554422,92.89433468204085
5.05,-0.17640581373325934,92.64985597932706
5.06,-0.17776683419760256,92.89433468204085
5.07,-0.18158647227495286,92.64985597932706
5.08,-0.17807416139922844,92.89433468204085
5.09,-0.1778985458554422,92.61956658253065
5.1,-0.18799643962314994,92.92462407883724
5.11,-0.2069190144661153,92.64985597932706
5.12,-0.21332898181431237,92.89433468204085
5.13,-0.2160510227429988,92.64985597932706
5.14,-0.20766538052720673,92.86404528524444
5.15,-0.17043488524452782,92.61956658253065
5.16,-0.15348798526915744,92.89433468204085
5.17,-0.15243429200644013,92.64985597932706
5.18,-0.1605126070206063,92.46703783437736
5.19,-0.18141085673116664,92.31450908622408
5.2,-0.17776683419760256,92.16198033807078
5.21,-0.15945891375788898,91.5204941844899
5.22,-0.1544099668740351,90.78813984051983
5.23,-0.16038089536276665,90.26997480246716
5.24,-0.18158647227495286,90.48308234421326
5.25,-0.07248531569776286,89.96491730616057
5.26,0.5639454149835033,89.62848864888629
5.27,1.5928768860269742,88.68302676317013
5.28,1.411905068155273,88.40825866365994
5.29,0.1028229008868326,87.85872246463957
5.3,-0.35017739430972533,87.52337557153658
5.31,-0.12802373142015536,87.30918626561919
5.32,-0.08912488847150733,87.0960787238731
5.33,-0.09843251229217706,86.60820308261682
5.34,-0.08056363071192904,85.99700632583234
5.35,-0.07156333409288519,85.44747012681198
5.36,-0.0555384157223925,85.35660193642278
5.37,-0.04074280615840335,85.11212323370899
5.38,-0.02779115980416953,84.8990156919629
5.39,-0.011151587030425056,84.22724014158563
5.4,0.004258676936815867,84.04442199663593
5.41,0.02397152172681921,83.83023269071855
5.42,0.04241115382437245,83.64741454576885
5.43,0.05448472245967517,83.40293584305506
5.44,0.07143162243504553,83.18982830130896
5.45,0.09492020141645263,82.5797133086958
5.46,0.11735508713514241,82.88477080500239
5.47,0.14268762932630483,82.6402921022886
5.48,0.17425452332187813,82.4271845605425
5.49,0.2130216546126865,81.69483021657244
5.5,0.2635111234512251,82.03017710967542
5.51,0.3215081567866247,81.35840155929814
5.52,0.39030554606487694,81.93822715511493
5.53,0.4693764446546231,82.5180527509317
5.54,0.5378665067312494,82.7625314536455
5.55,0.5920439019892987,82.67058149908499
5.56,0.6337086897525798,84.8373551341988
5.57,0.64147967756512,90.66698225333424
5.58,0.5840972986329722,98.41782254069841
5.59,0.4516392747322147,106.56567027892964
5.6,0.27861406021684015,123.99180931440058
5.61,0.12315040008008772,124.17462745935028
5.62,0.010053989881761172,124.38881676526768
5.63,-0.06958765922529021,123.68675181809401
5.64,-0.1213064368703324,123.10692622227722
5.65,-0.14799999952583803,122.61796881684965
5.66,-0.16007356816114077,122.80186872597064
5.67,-0.16143458862548396,122.52710062646045
5.68,-0.15458558241782133,122.80186872597064
5.69,-0.14756096066637248,120.54314513629635
5.7,-0.14084366611654953,117.24700970634538
5.71,-0.13078967623478835,113.76805613144474
5.72,-0.11810145319623386,111.63157189312733
5.73,-0.11076950424315911,109.03858317452135
5.74,-0.10954019543665557,109.37393006762433
5.75,-0.10664253896418291,109.09916196811415
5.76,-0.11138415864641088,109.40421946442072
5.77,-0.11840878039785974,109.06887257131774
5.78,-0.12376505448333949,109.31226950986023
5.79,-0.13245802390075745,108.76381507501115
5.8,-0.13715573969703887,108.15261831822669
5.81,-0.14022901171329774,106.99296712659313
5.82,-0.14909759667450193,106.38285213397995
5.83,-0.15748323889029398,105.4060190872961
5.84,-0.15748323889029398,105.22320094234641
5.85,-0.15594660288216455,105.01009340060031
5.86,-0.15822960495138544,105.528258438653
5.87,-0.16341026349307897,105.4676796450602
5.88,-0.1682835948331466,105.6504977900099
5.89,-0.16889824923639837,105.4373902482638
5.9,-0.1669225743688034,105.68078718680628
5.91,-0.1713568668494055,105.83331593495959
5.92,-0.1735081572607867,106.01721584408057
5.93,-0.17179590570887102,106.26061278262307
5.94,-0.17148857850724514,106.44451269174405
5.95,-0.17166419405103137,106.23032338582667
5.96,-0.17197152125265724,106.35256273718356
5.97,-0.17561554378622135,105.89497649272369
5.98,-0.17974250906519754,105.3151508969069
5.99,-0.18097181787170108,103.97268156032366
6.0,-0.17943518186357166,102.90389855907931
6.01,-0.18127914507332699,101.07247181706849
6.02,-0.18141085673116664,101.22608232939308
6.03,-0.17653752539109901,99.45523438097506
6.04,-0.17579115933000755,98.08247564759542
6.05,-0.17412281166403845,97.10564260091157
6.06,-0.17394719612025225,97.31983190682895
6.07,-0.17579115933000755,96.2510489055846
6.08,-0.17776683419760256,95.76317326432832
6.09,-0.177327795338137,94.75605082084806
6.1,-0.17943518186357166,94.42070392774508
6.11,-0.17974250906519754,93.8711677287247
6.12,-0.17943518186357166,93.59639962921452
6.13,-0.1796107974073579,93.04686343019414
6.14,-0.17868881580248022,92.95491347563365
6.15,-0.1789961430041061,92.74180593388755
6.16,-0.17702046813651112,92.46703783437736
6.17,-0.17425452332187813,92.31450908622408
6.18,-0.1730252145153746,92.43674843758097
6.19,-0.17394719612025225,92.28421968942767
6.2,-0.17148857850724514,92.52761662797016
6.21,-0.17043488524452782,92.28421968942767
6.22,-0.17179590570887102,92.10031978030668
6.23,-0.17394719612025225,91.8872122385606
6.24,-0.17258617565590903,92.10031978030668
6.25,-0.17091782798993993,91.8266334449678
6.26,-0.17030317358668814,91.7649728872037
6.27,-0.1730252145153746,91.45991539089711
6.28,-0.19515277303243847,91.24680784915103
6.29,-0.20538237845798585,91.06290794003003
6.3,-0.20784099607099296,90.94066858867313
6.31,-0.20784099607099296,90.30026419926357
6.32,-0.17030317358668814,90.08715665751747
6.33,-0.1451023430533654,89.75072800024319
6.34,-0.14387303424686185,89.2628523589869
6.35,-0.14299495652793073,88.98808425947672
6.36,-0.1588442593546372,88.83555551132342
6.37,-0.1669225743688034,87.76785427425037
6.38,-0.15748323889029398,87.61424376192578
6.39,-0.15520023682107312,86.9435499757198
6.4,-0.15809789329354576,86.8818894179557
6.41,-0.174561850523504,85.81418818088265
6.42,-0.10361317083387059,86.05866688359644
6.43,0.41809670586904646,85.0818338369126
6.44,1.5260112677303703,84.92930508875929
6.45,1.739515865088469,84.28781893517842
6.46,0.43276060377519593,84.10500079022873
6.47,-0.32335211999638,83.43430700402276
6.48,-0.12192109127358416,83.18982830130896
6.49,-0.058128744993239265,82.61000270549219
6.5,-0.09325185375048353,82.3958133995748
6.51,-0.08179293951843258,82.21299525462511
6.52,-0.07064135248800754,81.99988771287902
6.53,-0.0596653810013687,81.35840155929814
6.54,-0.048074755111478094,81.42006211706224
6.55,-0.036001186476175374,80.53517902493888
6.56,-0.02059092250893445,80.71799716988858
6.57,-0.009439335478509397,80.50380786397119
6.58,0.0028976564724726523,80.35127911581789
6.59,0.017385938834835912,79.71087472640832
6.6,0.03235716394261128,80.01593222271491
6.61,0.05338712531101129,79.74116412320473
6.62,0.07340729730264052,79.9856428259185
6.63,0.09079323613747643,79.34415667233763
6.64,0.11581845112701297,79.16133852738794
6.65,0.1464633635177086,78.88657042787776
6.66,0.18250845387983053,79.22191732098074
6.67,0.22996855458805684,79.00880977923465
6.68,0.28502402756503725,79.19162792418435
6.69,0.3494310282486339,78.97852038243825
6.7,0.42143340120098466,78.79570223748856
6.71,0.49484069850362516,79.34415667233763
6.72,0.5615307012564428,80.2604109254287
6.73,0.6102201107711727,83.37264644625866
6.74,0.6314256876833588,90.51445350518095
6.75,0.606532184351662,99.02793753331157
6.76,0.5043239378680812,108.03146073104108
6.77,0.3437674269615283,123.7776200084832
6.78,0.17943518186357166,124.35744560429997
6.79,0.04715277350660043,123.7776200084832
6.8,-0.04943577557582131,123.5948018635335
6.81,-0.11261346745291444,122.52710062646045
6.82,-0.1472536334647466,121.64221753433709
6.83,-0.16402491789633072,121.36744943482691
6.84,-0.16951290363965016,119.53602269281609
6.85,-0.16679086271096372,115.87425097296574
6.86,-0.16038089536276665,112.3952973980651
6.87,-0.15577098733837833,112.1508186953513
6.88,-0.14861465392908982,110.86892815236087
6.89,-0.1373313552408251,109.46479825801353
6.9,-0.13276535110238333,109.19111192267464
6.91,-0.133687332707261,108.73244391404346
6.92,-0.12815544307799503,108.85468326540035
6.93,-0.12815544307799503,108.70215451724705
6.94,-0.1345654104261921,108.79410447180756
6.95,-0.14251201378251863,108.64157572365426
6.96,-0.1494049238761278,108.94663321996084
6.97,-0.15520023682107312,108.64157572365426
6.98,-0.16481518784336874,108.45875757870456
6.99,-0.1712251551915658,107.87893198288779
7.0,-0.17258617565590903,107.5122139288171
7.01,-0.178513200258694,106.71928079125425
7.02,-0.1789961430041061,106.01721584408057
7.03,-0.1840011860020134,105.4373902482638
7.04,-0.19102580775346226,105.95555528631648
7.05,-0.19361613702430902,105.86468709592728
7.06,-0.19563571577785058,106.10808403446977
7.07,-0.19682112069840757,105.74244774457038
7.08,-0.19927973831141466,105.98584468311287
7.09,-0.20050904711791823,105.92526588952008
7.1,-0.19941144996925433,105.95555528631648
7.11,-0.19958706551304056,106.13945519543746
7.12,-0.20204568312604765,106.35256273718356
7.13,-0.20050904711791823,106.20003398903026
7.14,-0.19958706551304056,106.35256273718356
7.15,-0.2014310287227959,105.83331593495959
7.16,-0.20261643364335288,105.712158347774
7.17,-0.20204568312604765,104.24636789566256
7.18,-0.20187006758226142,103.36148480353918
7.19,-0.19927973831141466,101.59171861929246
7.2,-0.20094808597738378,100.06643113775954
7.21,-0.20292376084497876,98.69259064020859
7.22,-0.2008163743195441,97.71575759352474
7.23,-0.1997187771708802,96.74000631101218
7.24,-0.19594304297947646,95.70151270656423
7.25,-0.19133313495508816,94.75605082084806
7.26,-0.19379175256809525,94.0842752704708
7.27,-0.19286977096321758,93.8095071709606
7.28,-0.19546010023406435,93.22968157514383
7.29,-0.1980504295049111,92.95491347563365
7.3,-0.199148026653575,92.74180593388755
7.31,-0.1966894090405679,92.64985597932706
7.32,-0.19620646629515578,92.46703783437736
7.33,-0.1969967362421938,92.31450908622408
7.34,-0.1953283885762247,92.49732723117377
7.35,-0.19927973831141466,91.91750163535698
7.36,-0.20112370152116998,92.13169094127439
7.37,-0.20125541317900966,91.8872122385606
7.38,-0.19927973831141466,92.13169094127439
7.39,-0.19243073210375203,91.85692284176419
7.4,-0.1892257484296535,91.6741046968145
7.41,-0.19181607770050027,91.49020478769351
7.42,-0.1901038261485846,91.7043940936109
7.43,-0.1908940960956226,91.09427910099772
7.44,-0.1948454458308126,91.27709724594742
7.45,-0.19361613702430902,90.69727165013065
7.46,-0.19822604504869734,90.51445350518095
7.47,-0.21148501860455704,89.90325674839647
7.48,-0.21925600641709733,89.69014920665039
7.49,-0.22553426210745475,89.08003421403721
7.5,-0.2146900022786556,88.86584490811983
7.51,-0.1728935028575349,88.22544051871024
7.52,-0.15397092801456957,88.04154060958926
7.53,-0.15686858448704222,87.40113622017968
7.54,-0.15945891375788898,87.1263681206695
7.55,-0.17640581373325934,86.66878187620962
7.56,-0.18053277901223555,86.42430317349583
7.57,-0.1690738647801846,85.84447757767906
7.58,-0.16402491789633072,85.20407318826948
7.59,-0.16450786064174283,85.0818338369126
7.6,-0.18294749273929609,84.44142944750301
7.61,-0.08622723199903468,83.86160385168624
7.62,0.5087143264627366,83.64741454576885
7.63,1.5637247057584613,83.03729955315568
7.64,1.5113912737101673,82.91506020179878
7.65,0.18738178521989818,82.18270585782871
7.66,-0.35491901399195336,82.3958133995748
7.67,-0.1284627702796209,82.21299525462511
7.68,-0.09825689674839085,82.4574739573389
7.69,-0.12587244100877415,82.21299525462511
7.7,-0.10576446124525181,81.60288026201194
7.71,-0.08956392733097289,81.29782276570535
7.72,-0.07612933823132695,81.05334406299157
7.73,-0.06730465715606933,80.50380786397119
7.74,-0.056899436186735715,79.92398226815442
7.75,-0.036001186476175374,79.74116412320473
7.76,-0.021073865254346562,79.61892477184783
7.77,-0.009922278223921506,78.97852038243825
7.78,0.009922278223921506,79.22191732098074
7.79,0.03068881627664218,78.61180232836757
7.8,0.05005042997907308,78.73404167972447
7.81,0.06941204368150398,78.27645543526458
7.82,0.08987125453259877,78.39869478662148
7.83,0.11994541640598917,77.7572086330406
7.84,0.15577098733837833,77.9097373811939
7.85,0.18984040283290526,77.42186173993763
7.86,0.23146128671023972,77.57439048809091
7.87,0.2902046861067308,76.99456489227414
7.88,0.3576849588065863,77.60467988488732
7.89,0.42771165689134205,78.21479487750048
7.9,0.4947089868457855,80.65633661212448
7.91,0.5592476991872218,80.53517902493888
7.92,0.606532184351662,80.65633661212448
7.93,0.6253230475367877,86.9435499757198
7.94,0.5952488856633973,95.73288386753192
7.95,0.4900990788213972,105.07067219419312
7.96,0.3279181241348218,113.15794113883156
7.97,0.1624882818882013,123.41198371858381
7.98,0.03068881627664218,123.22916557363412
7.99,-0.06730465715606933,122.52710062646045
8.0,-0.12784811587636913,122.46544006869635
8.01,-0.15427825521619545,121.00073138075622
8.02,-0.16753722877205515,118.80366834884602
8.03,-0.1732008300591608,114.31759233046512
8.04,-0.16784455597368106,109.9840450602375
8.05,-0.15853693215301132,106.71928079125425
8.06,-0.155507564022699,106.71928079125425
8.07,-0.15348798526915744,106.53538088213325
8.08,-0.1513805987437228,105.528258438653
8.09,-0.14922930833234158,104.70503590429374
8.1,-0.14540967025499127,104.55250715614044
8.11,-0.14251201378251863,104.24636789566256
8.12,-0.1451023430533654,104.55250715614044
8.13,-0.15379531247078335,104.30802845342664
8.14,-0.15730762334650777,104.52113599517274
8.15,-0.16112726142385808,104.30802845342664
8.16,-0.17061050078831402,104.06354975071287
8.17,-0.17653752539109901,103.48372415489608
8.18,-0.17868881580248022,103.23924545218229
8.19,-0.18035716346844932,102.65941985636552
8.2,-0.18966478728911906,102.47660171141582
8.21,-0.1966894090405679,101.89677611559905
8.22,-0.19607475463731613,102.53826226917992
8.23,-0.19453811862918668,102.32407296326254
8.24,-0.19453811862918668,102.47660171141582
8.25,-0.19453811862918668,102.32407296326254
8.26,-0.1942307914275608,102.47660171141582
8.27,-0.19620646629515578,102.65941985636552
8.28,-0.1965137934967817,103.23924545218229
8.29,-0.1965137934967817,103.85044220896677
8.3,-0.1997187771708802,104.43026780478354
8.31,-0.1966894090405679,104.27773905663025
8.32,-0.19453811862918668,104.52113599517274
8.33,-0.19594304297947646,104.21607849886615
8.34,-0.1942307914275608,104.52113599517274
8.35,-0.19576742743569023,104.18578910206975
8.36,-0.2008163743195441,103.69791346081348
8.37,-0.2008163743195441,102.23320477287334
8.38,-0.19897241110978878,100.37148863406613
8.39,-0.19379175256809525,98.26529379254511
8.4,-0.196382081838942,96.77029570780857
8.41,-0.1997187771708802,95.00052952356185
8.42,-0.19453811862918668,94.35904336998098
8.43,-0.19194778935833992,93.04686343019414
8.44,-0.1947137341729729,92.80238472748034
8.45,-0.1966894090405679,92.25393029263128
8.46,-0.19761139064544556,92.07003038351029
8.47,-0.1969967362421938,91.45991539089711
8.48,-0.1969967362421938,91.27709724594742
8.49,-0.20002610437250612,90.33055359605996
8.5,-0.19927973831141466,90.57503229877375
8.51,-0.19330880982268314,89.96491730616057
8.52,-0.1947137341729729,90.02549609975337
8.53,-0.1950210613745988,89.5073310617007
8.54,-0.19330880982268314,89.5679098552935
8.55,-0.19379175256809525,89.41538110714019
8.56,-0.2063043600628635,89.75072800024319
8.57,-0.22232927843335623,89.4456705039366
8.58,-0.22325126003823387,89.3234311525797
8.59,-0.22750993697504976,89.5073310617007
8.6,-0.20722634166774118,89.29314175578331
8.61,-0.17363986891862634,89.08003421403721
8.62,-0.16722990157042927,89.2011918012228
8.63,-0.16586888110608605,88.74360555676293
8.64,-0.18250845387983053,88.86584490811983
8.65,-0.1947137341729729,88.31630870909945
8.66,-0.17807416139922844,88.43854806045634
8.67,-0.16845921037693282,88.16377996094616
8.68,-0.16951290363965016,88.37796926686354
8.69,-0.1762301981894731,88.19406935774255
8.7,-0.17381548446241257,87.98096181599647
8.71,0.08271492112331025,87.88901186143596
8.72,0.9530655561278232,87.61424376192578
8.73,1.5882669780025858,85.84447757767906
8.74,0.7277069095641547,85.60108063913657
8.75,-0.31843488477036586,84.98988388235209
8.76,-0.2993805982695608,84.776776340606
8.77,-0.11507208506592154,83.89189324848265
8.78,-0.11199881304966267,83.61712514897245
8.79,-0.09966182109868062,83.09787834674847
8.8,-0.087280925261752,82.7625314536455
8.81,-0.06910471647987809,82.21299525462511
8.82,-0.05171877764504219,81.93822715511493
8.83,-0.040128151755151574,81.20587281114486
8.84,-0.023488578981407104,81.11500462075566
8.85,-0.004873331340067642,80.53517902493888
8.86,0.012380895836928604,80.29070032222509
8.87,0.027922871462009193,79.83311407776522
8.88,0.04486977143737955,79.9856428259185
8.89,0.06559240560415368,79.46639602369453
8.9,0.089256600129347,79.58863537505142
8.91,0.11335983351400587,78.97852038243825
8.92,0.13746306689866475,79.16133852738794
8.93,0.16420053344011695,78.58151293157117
8.94,0.19791871784707146,78.85628103108137
8.95,0.23576386753300216,78.24616603846819
8.96,0.2853313547666631,78.45927358021427
8.97,0.3500456826518857,78.24616603846819
8.98,0.41778937866742055,79.10075973379514
8.99,0.483996438674826,80.53517902493888
9.0,0.5473497460957054,80.59575781853168
9.01,0.5999905053456253,80.4432290703784
9.02,0.6279133768076344,80.68770777309219
9.03,0.6138641333047367,86.30206382213893
9.04,0.5348371386009371,94.05398587367439
9.05,0.38802254399565606,103.1483772617931
9.06,0.21864135201384557,111.20535680963515
9.07,0.07582201102970107,122.98468687092033
9.08,-0.020151883649468898,123.13721561907363
9.09,-0.0790269947037996,122.61796881684965
9.1,-0.11169148584803677,121.4896887861838
9.11,-0.13017502183153656,121.3371600380305
9.12,-0.13610204643432153,120.72596328124604
9.13,-0.13610204643432153,117.06419156139569
9.14,-0.13395075602294032,112.36500800126869
9.15,-0.13197508115534534,107.45163513522431
9.16,-0.12894571302503302,104.91814344603982
9.17,-0.1234577272817136,103.51401355169249
9.18,-0.12574072935093447,102.84331976548651
9.19,-0.13017502183153656,102.32407296326254
9.2,-0.13136042675209356,101.68366857385297
9.21,-0.13548739203106977,101.07247181706849
9.22,-0.14268762932630483,101.28666112298588
9.23,-0.14769267232421215,100.21895988591282
9.24,-0.15076594434047103,100.00477057999544
9.25,-0.15199525314697457,99.48660554194277
9.26,-0.16007356816114077,98.87540878515829
9.27,-0.1649468995012084,98.05218625079902
9.28,-0.16279560908982718,97.31983190682895
9.29,-0.16600059276392573,97.16622139450436
9.3,-0.1712251551915658,97.28846074586126
9.31,-0.17530821658459544,97.16622139450436
9.32,-0.1789961430041061,97.65517879993195
9.33,-0.17759121865381633,97.92994689944213
9.34,-0.17745950699597668,98.90677994612598
9.35,-0.18053277901223555,98.69259064020859
9.36,-0.18171818393279254,98.93706934292238
9.37,-0.18202551113441842,100.55430677901582
9.38,-0.18417680154579963,102.50689110821223
9.39,-0.18738178521989818,103.54538471266018
9.4,-0.1826401655376702,104.52113599517274
9.41,-0.17991812460898376,104.30802845342664
9.42,-0.18312310828308231,104.46055720157995
9.43,-0.1789961430041061,102.23320477287334
9.44,-0.1806644906700752,100.8593642753224
9.45,-0.18540611035230317,98.69259064020859
9.46,-0.17991812460898376,96.95311385275826
9.47,-0.17653752539109901,95.12168711074744
9.48,-0.1789961430041061,94.42070392774508
9.49,-0.1789961430041061,92.61956658253065
9.5,-0.18220112667820465,91.6741046968145
9.51,-0.18312310828308231,90.63561109236655
9.52,-0.1823328383360443,90.11744605431387
9.53,-0.1834304354847082,89.84267795480368
9.54,-0.1850987831506773,89.75072800024319
9.55,-0.18602076475555496,89.04866305306952
9.56,-0.18461584040526519,88.77389495355932
9.57,-0.18373776268633407,88.22544051871024
9.58,-0.18035716346844932,88.43854806045634
9.59,-0.18127914507332699,88.31630870909945
9.6,-0.18461584040526519,88.46883745725275
9.61,-0.18417680154579963,87.76785427425037
9.62,-0.1823328383360443,88.07291177055696
9.63,-0.18189379947657874,87.73648311328267
9.64,-0.18189379947657874,87.58395436512937
9.65,-0.18171818393279254,87.37084682338329
9.66,-0.18202551113441842,87.55366496833298
9.67,-0.19212340490212615,87.37084682338329
9.68,-0.21117769140293116,87.55366496833298
9.69,-0.2119240574640226,87.30918626561919
9.7,-0.21056303699967938,87.61424376192578
9.71,-0.20112370152116998,87.43142561697609
9.72,-0.1670981899125896,87.1566575174659
9.73,-0.15015128993721924,87.0657893270767
9.74,-0.15015128993721924,87.1880286784336
9.75,-0.1516879259453487,86.69907127300601
9.76,-0.16938119198181048,86.8818894179557
9.77,-0.16951290363965016,86.21119563174973
9.78,-0.15822960495138544,86.08895628039285
9.79,-0.15928329821410275,85.38689133321917
9.8,-0.16968851918343636,85.60108063913657
9.81,-0.17197152125265724,85.11212323370899
9.82,0.07415366336373196,84.8070657374024
9.83,0.9623731799484929,84.6848263860455
9.84,1.797776321739548,83.98276143887183
9.85,1.0436831767215133,83.89189324848265
9.86,-0.18158647227495286,83.64741454576885
9.87,-0.25710115610302803,82.6402921022886
9.88,-0.07020231362854198,82.7625314536455
9.89,-0.10299851643061882,81.75540901016524
9.9,-0.10545713404362592,81.51093030745145
9.91,-0.09399821981157497,80.96139410843107
9.92,-0.08302224832493614,80.65633661212448
9.93,-0.06269474913168102,80.47351846717478
9.94,-0.04759181236606598,80.29070032222509
9.95,-0.03235716394261128,79.74116412320473
9.96,-0.017868881580248023,79.55834597825503
9.97,-0.0028976564724726523,79.10075973379514
9.98,0.012073568635302716,78.76433107652086
9.99,0.025771581050627983,78.64209172516397
